__time,/psm_joint_telemetry/header/stamp,/psm_joint_telemetry/insertion/effort,/psm_joint_telemetry/insertion/position,/psm_joint_telemetry/insertion/velocity,/psm_joint_telemetry/pitch/effort,/psm_joint_telemetry/pitch/position,/psm_joint_telemetry/pitch/velocity,/psm_joint_telemetry/roll/effort,/psm_joint_telemetry/roll/position,/psm_joint_telemetry/roll/velocity
1747313634.433668,17.196000000,0.000000000,57670.914062500,0.000000000,0.000000000,-0.272256732,-82.068878174,0.000000000,14.882999420,-23.422182083
1747313634.436025,17.198000000,0.000000000,57670.914062500,0.000000000,0.000000000,-0.272256732,-82.068969727,0.000000000,14.882999420,-23.422182083
1747313634.438475,17.200000000,0.000000000,57670.914062500,0.000000000,0.000000000,-0.272256732,-82.069061279,0.000000000,14.882999420,-23.422182083
1747313634.440834,17.203000000,0.000000000,57670.914062500,0.000000000,0.000000000,-0.272256732,-82.069160461,0.000000000,14.882999420,-23.422182083
1747313634.443175,17.205000000,0.000000000,57670.914062500,0.000000000,0.000000000,-0.272256732,-82.069244385,0.000000000,14.882999420,-23.422182083
1747313634.445566,17.208000000,0.000000000,57670.914062500,0.000000000,0.000000000,-0.272256732,-82.069335938,0.000000000,14.882999420,-23.422182083
1747313634.447988,17.210000000,0.000000000,57670.914062500,0.000000000,0.000000000,-0.272256732,-82.069427490,0.000000000,14.882999420,-23.422182083
1747313634.450372,17.212000000,0.000000000,57670.914062500,0.000000000,0.000000000,-0.272256732,-82.069519043,0.000000000,14.882999420,-23.422182083
1747313634.452794,17.215000000,0.000000000,57670.914062500,0.000000000,0.000000000,-0.272256732,-82.069610596,0.000000000,14.882999420,-23.422182083
1747313634.455070,17.217000000,0.000000000,57670.914062500,0.000000000,0.000000000,-0.258757174,-80.899284363,0.000000000,14.882999420,-23.422182083
1747313634.457422,17.219000000,0.000000000,57670.914062500,0.000000000,0.000000000,-0.272256732,-80.254981995,0.000000000,14.882999420,-23.422182083
1747313634.459774,17.222000000,0.000000000,57670.914062500,0.000000000,0.000000000,-0.272256732,-82.069877625,0.000000000,14.882999420,-23.422182083
1747313634.462129,17.224000000,0.000000000,57670.914062500,0.000000000,0.000000000,-0.258757174,-80.921966553,0.000000000,14.882999420,-23.422182083
1747313634.464470,17.226000000,0.000000000,57670.914062500,0.000000000,0.000000000,-0.272256732,-80.248306274,0.000000000,14.882999420,-23.422182083
1747313634.466824,17.229000000,0.000000000,57670.914062500,0.000000000,0.000000000,-0.258757174,-80.920578003,0.000000000,14.882999420,-23.422182083
1747313634.469187,17.231000000,0.000000000,57670.914062500,0.000000000,0.000000000,-0.272256732,-80.256965637,0.000000000,14.882999420,-23.422182083
1747313634.471527,17.233000000,0.000000000,57670.914062500,0.000000000,0.000000000,-0.258757174,-80.904495239,0.000000000,14.882999420,-23.422182083
1747313634.473865,17.236000000,0.000000000,57670.914062500,0.000000000,0.000000000,-0.272256732,-80.240882874,0.000000000,14.882999420,-23.422182083
1747313634.476214,17.238000000,0.000000000,57670.914062500,0.000000000,0.000000000,-0.258757174,-80.927200317,0.000000000,14.882999420,-23.422182083
1747313634.478553,17.241000000,0.000000000,57670.914062500,0.000000000,0.000000000,-0.272256732,-80.244178772,0.000000000,14.882999420,-23.422182083
1747313634.480917,17.243000000,0.000000000,57670.914062500,0.000000000,0.000000000,-0.272256732,-82.070678711,0.000000000,14.882999420,-23.422182083
1747313634.483274,17.245000000,0.000000000,57670.914062500,0.000000000,0.000000000,-0.258757174,-80.908782959,0.000000000,14.882999420,-23.422182083
1747313634.485678,17.248000000,0.000000000,57670.914062500,0.000000000,0.000000000,-0.272256732,-80.235054016,0.000000000,14.882999420,-23.422182083
1747313634.487981,17.250000000,0.000000000,57670.914062500,0.000000000,0.000000000,-0.272256732,-82.070945740,0.000000000,14.882999420,-23.422182083
1747313634.490317,17.252000000,0.000000000,57670.914062500,0.000000000,0.000000000,-0.272256732,-82.071037292,0.000000000,14.882999420,-23.422182083
1747313634.492652,17.255000000,0.000000000,57670.914062500,0.000000000,0.000000000,-0.272256732,-82.071128845,0.000000000,14.882999420,-23.422182083
1747313634.495010,17.257000000,0.000000000,57670.914062500,0.000000000,0.000000000,-0.272256732,-82.071220398,0.000000000,14.882999420,-23.422182083
1747313634.497397,17.259000000,0.000000000,57670.914062500,0.000000000,0.000000000,-0.272256732,-82.071311951,0.000000000,14.882999420,-23.422182083
1747313634.499758,17.262000000,0.000000000,57670.914062500,0.000000000,0.000000000,-0.272256732,-82.071403503,0.000000000,14.882999420,-23.422182083
1747313634.502110,17.264000000,0.000000000,57670.914062500,0.000000000,0.000000000,-0.258757174,-80.910278320,0.000000000,14.882999420,-23.422182083
1747313634.504472,17.266000000,0.000000000,57670.914062500,0.000000000,0.000000000,-0.272256732,-80.245170593,0.000000000,14.882999420,-23.422182083
1747313634.506798,17.269000000,0.000000000,57670.914062500,0.000000000,0.000000000,-0.258757174,-80.908142090,0.000000000,14.882999420,-23.422182083
1747313634.509137,17.271000000,0.000000000,57670.914062500,0.000000000,0.000000000,-0.258757174,-79.092658997,0.000000000,14.882999420,-23.422182083
1747313634.511459,17.273000000,0.000000000,57670.914062500,0.000000000,0.000000000,-0.258757174,-79.092742920,0.000000000,14.882999420,-23.422182083
1747313634.513799,17.276000000,0.000000000,57670.914062500,0.000000000,0.000000000,-0.258757174,-79.092826843,0.000000000,14.882999420,-23.422182083
1747313634.516166,17.278000000,0.000000000,57670.914062500,0.000000000,0.000000000,-0.258757174,-79.092910767,0.000000000,14.882999420,-23.422182083
1747313634.518508,17.280000000,0.000000000,57670.914062500,0.000000000,0.000000000,-0.258757174,-79.093002319,0.000000000,14.882999420,-23.422182083
1747313634.520841,17.283000000,0.000000000,57670.914062500,0.000000000,0.000000000,-0.258757174,-79.093086243,0.000000000,14.882999420,-23.422182083
1747313634.523217,17.285000000,0.000000000,57670.914062500,0.000000000,0.000000000,-0.258757174,-79.093170166,0.000000000,14.882999420,-23.422182083
1747313634.525598,17.288000000,0.000000000,57670.914062500,0.000000000,0.000000000,-0.258757174,-79.093261719,0.000000000,14.882999420,-23.422182083
1747313634.528297,17.290000000,0.000000000,57670.914062500,0.000000000,0.000000000,-0.258757174,-79.093345642,0.000000000,14.882999420,-23.422182083
1747313634.530720,17.293000000,0.000000000,57670.914062500,0.000000000,0.000000000,-0.272256732,-80.459915161,0.000000000,14.882999420,-23.422182083
1747313634.533145,17.295000000,0.000000000,57670.914062500,0.000000000,0.000000000,-0.272256732,-82.072639465,0.000000000,14.882999420,-23.422182083
1747313634.535511,17.297000000,0.000000000,57670.914062500,0.000000000,0.000000000,-0.258757174,-80.868591309,0.000000000,14.882999420,-23.422182083
1747313634.537917,17.300000000,0.000000000,57670.914062500,0.000000000,0.000000000,-0.272256732,-80.300064087,0.000000000,14.882999420,-23.422182083
1747313634.540287,17.302000000,0.000000000,57670.914062500,0.000000000,0.000000000,-0.272256732,-82.072914124,0.000000000,14.882999420,-23.422182083
1747313634.542693,17.305000000,0.000000000,57670.914062500,0.000000000,0.000000000,-0.258757174,-80.896492004,0.000000000,14.882999420,-23.422182083
1747313634.545079,17.307000000,0.000000000,57670.914062500,0.000000000,0.000000000,-0.272256732,-80.288520813,0.000000000,14.882999420,-23.422182083
1747313634.547476,17.309000000,0.000000000,57670.914062500,0.000000000,0.000000000,-0.272256732,-82.073181152,0.000000000,14.882999420,-23.422182083
1747313634.549897,17.312000000,0.000000000,57670.914062500,0.000000000,0.000000000,-0.258757174,-80.879493713,0.000000000,14.882999420,-23.422182083
1747313634.552260,17.314000000,0.000000000,57670.914062500,0.000000000,0.000000000,-0.272256732,-80.311538696,0.000000000,14.882999420,-23.422182083
1747313634.554584,17.317000000,0.000000000,57670.914062500,0.000000000,0.000000000,-0.272256732,-82.073455811,0.000000000,14.882999420,-23.422182083
1747313634.556921,17.319000000,0.000000000,57670.914062500,0.000000000,0.000000000,-0.258757174,-80.933395386,0.000000000,14.882999420,-23.422182083
1747313634.559250,17.321000000,0.000000000,57670.914062500,0.000000000,0.000000000,-0.272256732,-80.241752625,0.000000000,14.882999420,-23.422182083
1747313634.561580,17.324000000,0.000000000,57670.914062500,0.000000000,0.000000000,-0.272256732,-82.073722839,0.000000000,14.882999420,-23.422182083
1747313634.563912,17.326000000,0.000000000,57670.914062500,0.000000000,0.000000000,-0.258757174,-80.933662415,0.000000000,14.882999420,-23.422182083
1747313634.566252,17.328000000,0.000000000,57670.914062500,0.000000000,0.000000000,-0.272256732,-80.244369507,0.000000000,14.882999420,-23.422182083
1747313634.568588,17.331000000,0.000000000,57670.914062500,0.000000000,0.000000000,-0.272256732,-82.073989868,0.000000000,14.882999420,-23.422182083
1747313634.570909,17.333000000,0.000000000,57670.914062500,0.000000000,0.000000000,-0.258757174,-80.927635193,0.000000000,14.882999420,-23.422182083
1747313634.573252,17.335000000,0.000000000,57670.914062500,0.000000000,0.000000000,-0.272256732,-80.225685120,0.000000000,14.882999420,-23.422182083
1747313634.575590,17.338000000,0.000000000,57670.914062500,0.000000000,0.000000000,-0.258757174,-80.923118591,0.000000000,14.882999420,-23.422182083
1747313634.577934,17.340000000,0.000000000,57670.914062500,0.000000000,0.000000000,-0.258757174,-79.095237732,0.000000000,14.882999420,-23.422182083
1747313634.580274,17.342000000,0.000000000,57670.914062500,0.000000000,0.000000000,-0.258757174,-79.095321655,0.000000000,14.882999420,-23.422182083
1747313634.582610,17.345000000,0.000000000,57670.914062500,0.000000000,0.000000000,-0.258757174,-79.095413208,0.000000000,14.882999420,-23.422182083
1747313634.584947,17.347000000,0.000000000,57670.914062500,0.000000000,0.000000000,-0.258757174,-79.095497131,0.000000000,14.882999420,-23.422182083
1747313634.587278,17.349000000,0.000000000,57670.914062500,0.000000000,0.000000000,-0.258757174,-79.095581055,0.000000000,14.882999420,-23.422182083
1747313634.589614,17.352000000,0.000000000,57670.914062500,0.000000000,0.000000000,-0.272256732,-80.235031128,0.000000000,14.882999420,-23.422182083
1747313634.591937,17.354000000,0.000000000,57670.914062500,0.000000000,0.000000000,-0.272256732,-82.074859619,0.000000000,14.882999420,-23.422182083
1747313634.594274,17.356000000,0.000000000,57670.914062500,0.000000000,0.000000000,-0.258757174,-80.940345764,0.000000000,14.882999420,-23.422182083
1747313634.596635,17.359000000,0.000000000,57670.914062500,0.000000000,0.000000000,-0.272256732,-80.243156433,0.000000000,14.882999420,-23.422182083
1747313634.598974,17.361000000,0.000000000,57670.914062500,0.000000000,0.000000000,-0.272256732,-82.075126648,0.000000000,14.882999420,-23.422182083
1747313634.601323,17.363000000,0.000000000,57670.914062500,0.000000000,0.000000000,-0.272256732,-82.075218201,0.000000000,14.882999420,-23.422182083
1747313634.603638,17.366000000,0.000000000,57670.914062500,0.000000000,0.000000000,-0.272256732,-82.075309753,0.000000000,14.882999420,-23.422182083
1747313634.605960,17.368000000,0.000000000,57670.914062500,0.000000000,0.000000000,-0.272256732,-82.075393677,0.000000000,14.882999420,-23.422182083
1747313634.608290,17.370000000,0.000000000,57670.914062500,0.000000000,0.000000000,-0.272256732,-82.075485229,0.000000000,14.882999420,-23.422182083
1747313634.610622,17.373000000,0.000000000,57670.914062500,0.000000000,0.000000000,-0.272256732,-82.075576782,0.000000000,14.882999420,-23.422182083
1747313634.612969,17.375000000,0.000000000,57670.914062500,0.000000000,0.000000000,-0.272256732,-82.075668335,0.000000000,14.882999420,-23.422182083
1747313634.615294,17.377000000,0.000000000,57670.914062500,0.000000000,0.000000000,-0.272256732,-82.075752258,0.000000000,14.882999420,-23.422182083
1747313634.617626,17.380000000,0.000000000,57670.914062500,0.000000000,0.000000000,-0.272256732,-82.075843811,0.000000000,14.882999420,-23.422182083
1747313634.619980,17.382000000,0.000000000,57670.914062500,0.000000000,0.000000000,-0.258757174,-80.942123413,0.000000000,14.882999420,-23.422182083
1747313634.622339,17.384000000,0.000000000,57670.914062500,0.000000000,0.000000000,-0.272256732,-80.240219116,0.000000000,14.882999420,-23.422182083
1747313634.624664,17.387000000,0.000000000,57670.914062500,0.000000000,0.000000000,-0.258757174,-80.909515381,0.000000000,14.882999420,-23.422182083
1747313634.626973,17.389000000,0.000000000,57670.914062500,0.000000000,0.000000000,-0.258757174,-79.097099304,0.000000000,14.882999420,-23.422182083
1747313634.629314,17.391000000,0.000000000,57670.914062500,0.000000000,0.000000000,-0.258757174,-79.097183228,0.000000000,14.882999420,-23.422182083
1747313634.631663,17.394000000,0.000000000,57670.914062500,0.000000000,0.000000000,-0.272256732,-80.241355896,0.000000000,14.882999420,-23.422182083
1747313634.634019,17.396000000,0.000000000,57670.914062500,0.000000000,0.000000000,-0.272256732,-82.076461792,0.000000000,14.882999420,-23.422182083
1747313634.636363,17.398000000,0.000000000,57670.914062500,0.000000000,0.000000000,-0.258757174,-80.923866272,0.000000000,14.882999420,-23.422182083
1747313634.638694,17.401000000,0.000000000,57670.914062500,0.000000000,0.000000000,-0.272256732,-80.263366699,0.000000000,14.882999420,-23.422182083
1747313634.641030,17.403000000,0.000000000,57670.914062500,0.000000000,0.000000000,-0.258757174,-80.930290222,0.000000000,14.882999420,-23.422182083
1747313634.643365,17.405000000,0.000000000,57670.914062500,0.000000000,0.000000000,-0.272256732,-80.248062134,0.000000000,14.882999420,-23.422182083
1747313634.645696,17.408000000,0.000000000,57670.914062500,0.000000000,0.000000000,-0.272256732,-82.076904297,0.000000000,14.882999420,-23.422182083
1747313634.648041,17.410000000,0.000000000,57670.914062500,0.000000000,0.000000000,-0.258757174,-80.935272217,0.000000000,14.882999420,-23.422182083
1747313634.650382,17.412000000,0.000000000,57670.914062500,0.000000000,0.000000000,-0.272256732,-80.245201111,0.000000000,14.882999420,-23.422182083
1747313634.652765,17.415000000,0.000000000,57670.914062500,0.000000000,0.000000000,-0.272256732,-82.077171326,0.000000000,14.882999420,-23.422182083
1747313634.655143,17.417000000,0.000000000,57670.914062500,0.000000000,0.000000000,-0.272256732,-82.077262878,0.000000000,14.882999420,-23.422182083
1747313634.657509,17.419000000,0.000000000,57670.914062500,0.000000000,0.000000000,-0.272256732,-82.077354431,0.000000000,14.882999420,-23.422182083
1747313634.659866,17.422000000,0.000000000,57670.914062500,0.000000000,0.000000000,-0.272256732,-82.077445984,0.000000000,14.882999420,-23.422182083
1747313634.662202,17.424000000,0.000000000,57670.914062500,0.000000000,0.000000000,-0.258757174,-80.922515869,0.000000000,14.882999420,-23.422182083
1747313634.664647,17.427000000,0.000000000,57670.914062500,0.000000000,0.000000000,-0.272256732,-80.244964600,0.000000000,14.882999420,-23.422182083
1747313634.666933,17.429000000,0.000000000,57670.914062500,0.000000000,0.000000000,-0.272256732,-82.077713013,0.000000000,14.882999420,-23.422182083
1747313634.669292,17.431000000,0.000000000,57670.914062500,0.000000000,0.000000000,-0.258757174,-80.903572083,0.000000000,14.882999420,-23.422182083
1747313634.671616,17.434000000,0.000000000,57670.914062500,0.000000000,0.000000000,-0.272256732,-80.258460999,0.000000000,14.882999420,-23.422182083
1747313634.673955,17.436000000,0.000000000,57670.914062500,0.000000000,0.000000000,-0.258757174,-80.929977417,0.000000000,14.882999420,-23.422182083
1747313634.676295,17.438000000,0.000000000,57670.914062500,0.000000000,0.000000000,-0.272256732,-80.246978760,0.000000000,14.882999420,-23.422182083
1747313634.678639,17.441000000,0.000000000,57670.914062500,0.000000000,0.000000000,-0.272256732,-82.078155518,0.000000000,14.882999420,-23.422182083
1747313634.681000,17.443000000,0.000000000,57670.914062500,0.000000000,0.000000000,-0.258757174,-80.926338196,0.000000000,14.882999420,-23.422182083
1747313634.683435,17.445000000,0.000000000,57670.914062500,0.000000000,0.000000000,-0.272256732,-80.257362366,0.000000000,14.882999420,-23.422182083
1747313634.685800,17.448000000,0.000000000,57670.914062500,0.000000000,0.000000000,-0.258757174,-80.848930359,0.000000000,14.882999420,-23.422182083
1747313634.688146,17.450000000,0.000000000,57670.914062500,0.000000000,0.000000000,-0.272256732,-80.259086609,0.000000000,14.882999420,-23.422182083
1747313634.690496,17.452000000,0.000000000,57670.914062500,0.000000000,0.000000000,-0.258757174,-80.929039001,0.000000000,14.882999420,-23.422182083
1747313634.692835,17.455000000,0.000000000,57670.914062500,0.000000000,0.000000000,-0.258757174,-79.099594116,0.000000000,14.882999420,-23.422182083
1747313634.695195,17.457000000,0.000000000,57670.914062500,0.000000000,0.000000000,-0.258757174,-79.099678040,0.000000000,14.882999420,-23.422182083
1747313634.697553,17.460000000,0.000000000,57670.914062500,0.000000000,0.000000000,-0.272256732,-80.262519836,0.000000000,14.882999420,-23.422182083
1747313634.699945,17.462000000,0.000000000,57670.914062500,0.000000000,0.000000000,-0.272256732,-82.078956604,0.000000000,14.882999420,-23.422182083
1747313634.702345,17.464000000,0.000000000,57670.914062500,0.000000000,0.000000000,-0.258757174,-80.898002625,0.000000000,14.882999420,-23.422182083
1747313634.704692,17.467000000,0.000000000,57670.914062500,0.000000000,0.000000000,-0.272256732,-80.300491333,0.000000000,14.882999420,-23.422182083
1747313634.707064,17.469000000,0.000000000,57670.914062500,0.000000000,0.000000000,-0.258757174,-80.924980164,0.000000000,14.882999420,-23.422182083
1747313634.709387,17.471000000,0.000000000,57670.914062500,0.000000000,0.000000000,-0.272256732,-80.260658264,0.000000000,14.882999420,-23.422182083
1747313634.711746,17.474000000,0.000000000,57670.914062500,0.000000000,0.000000000,-0.272256732,-82.079406738,0.000000000,14.882999420,-23.422182083
1747313634.714105,17.476000000,0.000000000,57670.914062500,0.000000000,0.000000000,-0.258757174,-80.919822693,0.000000000,14.882999420,-23.422182083
1747313634.716474,17.478000000,0.000000000,57670.914062500,0.000000000,0.000000000,-0.272256732,-80.255500793,0.000000000,14.882999420,-23.422182083
1747313634.718780,17.481000000,0.000000000,57670.914062500,0.000000000,0.000000000,-0.272256732,-82.079673767,0.000000000,14.882999420,-23.422182083
1747313634.721133,17.483000000,0.000000000,57670.914062500,0.000000000,0.000000000,-0.258757174,-80.924736023,0.000000000,14.882999420,-23.422182083
1747313634.723452,17.485000000,0.000000000,57670.914062500,0.000000000,0.000000000,-0.272256732,-80.250320435,0.000000000,14.882999420,-23.422182083
1747313634.725806,17.488000000,0.000000000,57670.914062500,0.000000000,0.000000000,-0.258757174,-80.935852051,0.000000000,14.882999420,-23.422182083
1747313634.728139,17.490000000,0.000000000,57670.914062500,0.000000000,0.000000000,-0.272256732,-80.254394531,0.000000000,14.882999420,-23.422182083
1747313634.730512,17.492000000,0.000000000,57670.914062500,0.000000000,0.000000000,-0.272256732,-82.080116272,0.000000000,14.882999420,-23.422182083
1747313634.732945,17.495000000,0.000000000,57670.914062500,0.000000000,0.000000000,-0.258757174,-80.899162292,0.000000000,14.882999420,-23.422182083
1747313634.735324,17.497000000,0.000000000,57670.914062500,0.000000000,0.000000000,-0.272256732,-80.288253784,0.000000000,14.882999420,-23.422182083
1747313634.737689,17.500000000,0.000000000,57670.914062500,0.000000000,0.000000000,-0.258757174,-80.896324158,0.000000000,14.882999420,-23.422182083
1747313634.740113,17.502000000,0.000000000,57670.914062500,0.000000000,0.000000000,-0.258757174,-79.101371765,0.000000000,14.882999420,-23.422182083
