__time,/psm_joint_telemetry/header/stamp,/psm_joint_telemetry/insertion/effort,/psm_joint_telemetry/insertion/position,/psm_joint_telemetry/insertion/velocity,/psm_joint_telemetry/pitch/effort,/psm_joint_telemetry/pitch/position,/psm_joint_telemetry/pitch/velocity,/psm_joint_telemetry/roll/effort,/psm_joint_telemetry/roll/position,/psm_joint_telemetry/roll/velocity
1747312815.736461,18.467000000,0.000000000,58004.273437500,0.000000000,0.000000000,-15.541137695,-105.466300964,0.000000000,-0.084000528,-16.815948486
1747312815.738860,18.469000000,0.000000000,58004.273437500,0.000000000,0.000000000,-15.541137695,-105.466499329,0.000000000,-0.084000528,-16.815948486
1747312815.741260,18.472000000,0.000000000,58004.273437500,0.000000000,0.000000000,-15.541137695,-105.466682434,0.000000000,-0.084000528,-16.815948486
1747312815.743773,18.474000000,0.000000000,58004.273437500,0.000000000,0.000000000,-15.541137695,-105.466865540,0.000000000,-0.084000528,-16.815948486
1747312815.746246,18.477000000,0.000000000,58004.273437500,0.000000000,0.000000000,-15.541137695,-105.467063904,0.000000000,-0.084000528,-16.815948486
1747312815.748603,18.479000000,0.000000000,58004.273437500,0.000000000,0.000000000,-15.541137695,-105.467247009,0.000000000,-0.084000528,-16.815948486
1747312815.751113,18.481000000,0.000000000,58004.273437500,0.000000000,0.000000000,-15.541137695,-105.467430115,0.000000000,-0.084000528,-16.815948486
1747312815.753569,18.484000000,0.000000000,58004.273437500,0.000000000,0.000000000,-15.541137695,-105.467613220,0.000000000,-0.084000528,-16.815948486
1747312815.755903,18.486000000,0.000000000,58004.273437500,0.000000000,0.000000000,-15.541137695,-105.467811584,0.000000000,-0.084000528,-16.815948486
1747312815.758238,18.489000000,0.000000000,58004.273437500,0.000000000,0.000000000,-15.541137695,-105.467979431,0.000000000,-0.084000528,-16.815948486
1747312815.760575,18.491000000,0.000000000,58004.273437500,0.000000000,0.000000000,-15.541137695,-105.468162537,0.000000000,-0.084000528,-16.815948486
1747312815.762933,18.493000000,0.000000000,58004.273437500,0.000000000,0.000000000,-15.541137695,-105.468345642,0.000000000,-0.084000528,-16.815948486
1747312815.765262,18.496000000,0.000000000,58004.273437500,0.000000000,0.000000000,-15.541137695,-105.468528748,0.000000000,-0.084000528,-16.815948486
1747312815.767649,18.498000000,0.000000000,58004.273437500,0.000000000,0.000000000,-15.541137695,-105.468711853,0.000000000,-0.084000528,-16.815948486
1747312815.770059,18.500000000,0.000000000,58004.273437500,0.000000000,0.000000000,-15.541137695,-105.468894958,0.000000000,-0.084000528,-16.815948486
1747312815.772445,18.503000000,0.000000000,58004.273437500,0.000000000,0.000000000,-15.541137695,-105.469062805,0.000000000,-0.084000528,-16.815948486
1747312815.774820,18.505000000,0.000000000,58004.273437500,0.000000000,0.000000000,-15.541137695,-105.469245911,0.000000000,-0.084000528,-16.815948486
1747312815.777260,18.508000000,0.000000000,58004.273437500,0.000000000,0.000000000,-15.541137695,-105.469429016,0.000000000,-0.084000528,-16.815948486
1747312815.779656,18.510000000,0.000000000,58004.273437500,0.000000000,0.000000000,-15.541137695,-105.469612122,0.000000000,-0.084000528,-16.815948486
1747312815.782082,18.512000000,0.000000000,58004.273437500,0.000000000,0.000000000,-15.541137695,-105.469795227,0.000000000,-0.084000528,-16.815948486
1747312815.784481,18.515000000,0.000000000,58004.273437500,0.000000000,0.000000000,-15.541137695,-105.469993591,0.000000000,-0.084000528,-16.815948486
1747312815.786916,18.517000000,0.000000000,58004.273437500,0.000000000,0.000000000,-15.541137695,-105.470176697,0.000000000,-0.084000528,-16.815948486
1747312815.789334,18.520000000,0.000000000,58004.273437500,0.000000000,0.000000000,-15.541137695,-105.470359802,0.000000000,-0.084000528,-16.815948486
1747312815.791690,18.522000000,0.000000000,58004.273437500,0.000000000,0.000000000,-15.541137695,-105.470542908,0.000000000,-0.084000528,-16.815948486
1747312815.794016,18.524000000,0.000000000,58004.273437500,0.000000000,0.000000000,-15.541137695,-105.470726013,0.000000000,-0.084000528,-16.815948486
1747312815.796397,18.527000000,0.000000000,58004.273437500,0.000000000,0.000000000,-15.541137695,-105.470909119,0.000000000,-0.084000528,-16.815948486
1747312815.798721,18.529000000,0.000000000,58004.273437500,0.000000000,0.000000000,-15.541137695,-105.471092224,0.000000000,-0.084000528,-16.815948486
1747312815.801107,18.531000000,0.000000000,58004.273437500,0.000000000,0.000000000,-15.541137695,-105.471260071,0.000000000,-0.084000528,-16.815948486
1747312815.803485,18.534000000,0.000000000,58004.273437500,0.000000000,0.000000000,-15.541137695,-105.471443176,0.000000000,-0.084000528,-16.815948486
1747312815.805865,18.536000000,0.000000000,58004.273437500,0.000000000,0.000000000,-15.541137695,-105.471626282,0.000000000,-0.084000528,-16.815948486
1747312815.808264,18.539000000,0.000000000,58004.273437500,0.000000000,0.000000000,-15.541137695,-105.471809387,0.000000000,-0.084000528,-16.815948486
1747312815.810627,18.541000000,0.000000000,58004.273437500,0.000000000,0.000000000,-15.541137695,-105.471992493,0.000000000,-0.084000528,-16.815948486
1747312815.813002,18.543000000,0.000000000,58004.273437500,0.000000000,0.000000000,-15.541137695,-105.472175598,0.000000000,-0.084000528,-16.815948486
1747312815.815388,18.546000000,0.000000000,58004.273437500,0.000000000,0.000000000,-15.541137695,-105.472358704,0.000000000,-0.084000528,-16.815948486
1747312815.817753,18.548000000,0.000000000,58004.273437500,0.000000000,0.000000000,-15.541137695,-105.472541809,0.000000000,-0.084000528,-16.815948486
1747312815.820135,18.550000000,0.000000000,58004.273437500,0.000000000,0.000000000,-15.541137695,-105.472724915,0.000000000,-0.084000528,-16.815948486
1747312815.822512,18.553000000,0.000000000,58004.273437500,0.000000000,0.000000000,-15.541137695,-105.472908020,0.000000000,-0.084000528,-16.815948486
1747312815.824907,18.555000000,0.000000000,58004.273437500,0.000000000,0.000000000,-15.541137695,-105.473075867,0.000000000,-0.084000528,-16.815948486
1747312815.827286,18.558000000,0.000000000,58004.273437500,0.000000000,0.000000000,-15.541137695,-105.473274231,0.000000000,-0.084000528,-16.815948486
1747312815.829702,18.560000000,0.000000000,58004.273437500,0.000000000,0.000000000,-15.541137695,-105.473442078,0.000000000,-0.084000528,-16.815948486
1747312815.832135,18.562000000,0.000000000,58004.273437500,0.000000000,0.000000000,-15.541137695,-105.473640442,0.000000000,-0.084000528,-16.815948486
1747312815.834519,18.565000000,0.000000000,58004.273437500,0.000000000,0.000000000,-15.541137695,-105.473823547,0.000000000,-0.084000528,-16.815948486
1747312815.836914,18.567000000,0.000000000,58004.273437500,0.000000000,0.000000000,-15.541137695,-105.474006653,0.000000000,-0.084000528,-16.815948486
1747312815.839323,18.570000000,0.000000000,58004.273437500,0.000000000,0.000000000,-15.541137695,-105.474189758,0.000000000,-0.084000528,-16.815948486
1747312815.841820,18.572000000,0.000000000,58004.273437500,0.000000000,0.000000000,-15.541137695,-105.474372864,0.000000000,-0.084000528,-16.815948486
1747312815.844175,18.574000000,0.000000000,58004.273437500,0.000000000,0.000000000,-15.541137695,-105.474555969,0.000000000,-0.084000528,-16.815948486
1747312815.846531,18.577000000,0.000000000,58004.273437500,0.000000000,0.000000000,-15.541137695,-105.474739075,0.000000000,-0.084000528,-16.815948486
1747312815.848886,18.579000000,0.000000000,58004.273437500,0.000000000,0.000000000,-15.541137695,-105.474922180,0.000000000,-0.084000528,-16.815948486
1747312815.851265,18.582000000,0.000000000,58004.273437500,0.000000000,0.000000000,-15.541137695,-105.475105286,0.000000000,-0.084000528,-16.815948486
1747312815.853643,18.584000000,0.000000000,58004.273437500,0.000000000,0.000000000,-15.541137695,-105.475288391,0.000000000,-0.084000528,-16.815948486
1747312815.856074,18.586000000,0.000000000,58004.273437500,0.000000000,0.000000000,-15.541137695,-105.475471497,0.000000000,-0.084000528,-16.815948486
1747312815.858409,18.589000000,0.000000000,58004.273437500,0.000000000,0.000000000,-15.541137695,-105.475654602,0.000000000,-0.084000528,-16.815948486
1747312815.860828,18.591000000,0.000000000,58004.273437500,0.000000000,0.000000000,-15.541137695,-105.475822449,0.000000000,-0.084000528,-16.815948486
1747312815.863251,18.594000000,0.000000000,58004.273437500,0.000000000,0.000000000,-15.541137695,-105.476020813,0.000000000,-0.084000528,-16.815948486
1747312815.865649,18.596000000,0.000000000,58004.273437500,0.000000000,0.000000000,-15.541137695,-105.476203918,0.000000000,-0.084000528,-16.815948486
1747312815.868060,18.598000000,0.000000000,58004.273437500,0.000000000,0.000000000,-15.541137695,-105.476387024,0.000000000,-0.084000528,-16.815948486
1747312815.870467,18.601000000,0.000000000,58004.273437500,0.000000000,0.000000000,-15.541137695,-105.476570129,0.000000000,-0.084000528,-16.815948486
1747312815.872904,18.603000000,0.000000000,58004.273437500,0.000000000,0.000000000,-15.541137695,-105.476753235,0.000000000,-0.084000528,-16.815948486
1747312815.875312,18.606000000,0.000000000,58004.273437500,0.000000000,0.000000000,-15.541137695,-105.476936340,0.000000000,-0.084000528,-16.815948486
1747312815.877744,18.608000000,0.000000000,58004.273437500,0.000000000,0.000000000,-15.541137695,-105.477119446,0.000000000,-0.084000528,-16.815948486
1747312815.880259,18.611000000,0.000000000,58004.273437500,0.000000000,0.000000000,-15.541137695,-105.477302551,0.000000000,-0.084000528,-16.815948486
1747312815.882638,18.613000000,0.000000000,58004.273437500,0.000000000,0.000000000,-15.541137695,-105.477500916,0.000000000,-0.084000528,-16.815948486
1747312815.885058,18.615000000,0.000000000,58004.273437500,0.000000000,0.000000000,-15.541137695,-105.477684021,0.000000000,-0.084000528,-16.815948486
1747312815.887482,18.618000000,0.000000000,58004.273437500,0.000000000,0.000000000,-15.541137695,-105.477867126,0.000000000,-0.084000528,-16.815948486
1747312815.890028,18.620000000,0.000000000,58004.273437500,0.000000000,0.000000000,-15.541137695,-105.478050232,0.000000000,-0.084000528,-16.815948486
1747312815.892492,18.623000000,0.000000000,58004.273437500,0.000000000,0.000000000,-15.541137695,-105.478248596,0.000000000,-0.084000528,-16.815948486
1747312815.894864,18.625000000,0.000000000,58004.273437500,0.000000000,0.000000000,-15.541137695,-105.478431702,0.000000000,-0.084000528,-16.815948486
1747312815.897296,18.628000000,0.000000000,58004.273437500,0.000000000,0.000000000,-15.541137695,-105.478614807,0.000000000,-0.084000528,-16.815948486
1747312815.899668,18.630000000,0.000000000,58004.273437500,0.000000000,0.000000000,-15.541137695,-105.478797913,0.000000000,-0.084000528,-16.815948486
1747312815.902008,18.632000000,0.000000000,58004.273437500,0.000000000,0.000000000,-15.541137695,-105.478981018,0.000000000,-0.084000528,-16.815948486
1747312815.904385,18.635000000,0.000000000,58004.273437500,0.000000000,0.000000000,-15.541137695,-105.479164124,0.000000000,-0.084000528,-16.815948486
1747312815.906868,18.637000000,0.000000000,58004.273437500,0.000000000,0.000000000,-15.541137695,-105.479347229,0.000000000,-0.084000528,-16.815948486
1747312815.909332,18.640000000,0.000000000,58004.273437500,0.000000000,0.000000000,-15.541137695,-105.479530334,0.000000000,-0.084000528,-16.815948486
1747312815.911740,18.642000000,0.000000000,58004.273437500,0.000000000,0.000000000,-15.541137695,-105.479728699,0.000000000,-0.084000528,-16.815948486
1747312815.914279,18.645000000,0.000000000,58004.273437500,0.000000000,0.000000000,-15.541137695,-105.479911804,0.000000000,-0.084000528,-16.815948486
1747312815.916737,18.647000000,0.000000000,58004.273437500,0.000000000,0.000000000,-15.541137695,-105.480110168,0.000000000,-0.084000528,-16.815948486
1747312815.919248,18.649000000,0.000000000,58004.273437500,0.000000000,0.000000000,-15.541137695,-105.480293274,0.000000000,-0.084000528,-16.815948486
1747312815.921786,18.652000000,0.000000000,58004.273437500,0.000000000,0.000000000,-15.541137695,-105.480491638,0.000000000,-0.084000528,-16.815948486
1747312815.924313,18.654000000,0.000000000,58004.273437500,0.000000000,0.000000000,-15.541137695,-105.480674744,0.000000000,-0.084000528,-16.815948486
1747312815.926777,18.657000000,0.000000000,58004.273437500,0.000000000,0.000000000,-15.541137695,-105.480873108,0.000000000,-0.084000528,-16.815948486
1747312815.929287,18.659000000,0.000000000,58004.273437500,0.000000000,0.000000000,-15.541137695,-105.481056213,0.000000000,-0.084000528,-16.815948486
1747312815.931777,18.662000000,0.000000000,58004.273437500,0.000000000,0.000000000,-15.541137695,-105.481254578,0.000000000,-0.084000528,-16.815948486
1747312815.934258,18.664000000,0.000000000,58004.273437500,0.000000000,0.000000000,-15.541137695,-105.481437683,0.000000000,-0.084000528,-16.815948486
1747312815.936733,18.667000000,0.000000000,58004.273437500,0.000000000,0.000000000,-15.541137695,-105.481636047,0.000000000,-0.084000528,-16.815948486
1747312815.939120,18.669000000,0.000000000,58004.273437500,0.000000000,0.000000000,-15.541137695,-105.481819153,0.000000000,-0.084000528,-16.815948486
1747312815.941526,18.672000000,0.000000000,58004.273437500,0.000000000,0.000000000,-15.541137695,-105.482002258,0.000000000,-0.084000528,-16.815948486
1747312815.943942,18.674000000,0.000000000,58004.273437500,0.000000000,0.000000000,-15.541137695,-105.482185364,0.000000000,-0.084000528,-16.815948486
1747312815.946301,18.677000000,0.000000000,58004.273437500,0.000000000,0.000000000,-15.541137695,-105.482368469,0.000000000,-0.084000528,-16.815948486
1747312815.948651,18.679000000,0.000000000,58004.273437500,0.000000000,0.000000000,-15.541137695,-105.482551575,0.000000000,-0.084000528,-16.815948486
1747312815.950984,18.681000000,0.000000000,58004.273437500,0.000000000,0.000000000,-15.541137695,-105.482734680,0.000000000,-0.084000528,-16.815948486
1747312815.953367,18.684000000,0.000000000,58004.273437500,0.000000000,0.000000000,-15.541137695,-105.482917786,0.000000000,-0.084000528,-16.815948486
1747312815.955728,18.686000000,0.000000000,58004.273437500,0.000000000,0.000000000,-15.541137695,-105.483100891,0.000000000,-0.084000528,-16.815948486
1747312815.958090,18.688000000,0.000000000,58004.273437500,0.000000000,0.000000000,-15.541137695,-105.483268738,0.000000000,-0.084000528,-16.815948486
1747312815.960468,18.691000000,0.000000000,58004.273437500,0.000000000,0.000000000,-15.541137695,-105.483451843,0.000000000,-0.084000528,-16.815948486
1747312815.962805,18.693000000,0.000000000,58004.273437500,0.000000000,0.000000000,-15.541137695,-105.483634949,0.000000000,-0.084000528,-16.815948486
1747312815.965127,18.695000000,0.000000000,58004.273437500,0.000000000,0.000000000,-15.541137695,-105.483818054,0.000000000,-0.084000528,-16.815948486
1747312815.967485,18.698000000,0.000000000,58004.273437500,0.000000000,0.000000000,-15.541137695,-105.484001160,0.000000000,-0.084000528,-16.815948486
1747312815.969819,18.700000000,0.000000000,58004.273437500,0.000000000,0.000000000,-15.541137695,-105.484169006,0.000000000,-0.084000528,-16.815948486
1747312815.972204,18.703000000,0.000000000,58004.273437500,0.000000000,0.000000000,-15.541137695,-105.484352112,0.000000000,-0.084000528,-16.815948486
1747312815.974561,18.705000000,0.000000000,58004.273437500,0.000000000,0.000000000,-15.541137695,-105.484535217,0.000000000,-0.084000528,-16.815948486
1747312815.976892,18.707000000,0.000000000,58004.273437500,0.000000000,0.000000000,-15.541137695,-105.484718323,0.000000000,-0.084000528,-16.815948486
1747312815.979255,18.710000000,0.000000000,58004.273437500,0.000000000,0.000000000,-15.541137695,-105.484901428,0.000000000,-0.084000528,-16.815948486
1747312815.981572,18.712000000,0.000000000,58004.273437500,0.000000000,0.000000000,-15.541137695,-105.485069275,0.000000000,-0.084000528,-16.815948486
1747312815.983921,18.714000000,0.000000000,58004.273437500,0.000000000,0.000000000,-15.541137695,-105.485252380,0.000000000,-0.084000528,-16.815948486
1747312815.986261,18.717000000,0.000000000,58004.273437500,0.000000000,0.000000000,-15.541137695,-105.485435486,0.000000000,-0.084000528,-16.815948486
1747312815.988640,18.719000000,0.000000000,58004.273437500,0.000000000,0.000000000,-15.541137695,-105.485618591,0.000000000,-0.084000528,-16.815948486
1747312815.990973,18.721000000,0.000000000,58004.273437500,0.000000000,0.000000000,-15.541137695,-105.485786438,0.000000000,-0.084000528,-16.815948486
1747312815.993309,18.724000000,0.000000000,58004.273437500,0.000000000,0.000000000,-15.541137695,-105.485969543,0.000000000,-0.084000528,-16.815948486
1747312815.995664,18.726000000,0.000000000,58004.273437500,0.000000000,0.000000000,-15.541137695,-105.486152649,0.000000000,-0.084000528,-16.815948486
1747312815.998015,18.728000000,0.000000000,58004.273437500,0.000000000,0.000000000,-15.541137695,-105.486335754,0.000000000,-0.084000528,-16.815948486
1747312816.000409,18.731000000,0.000000000,58004.273437500,0.000000000,0.000000000,-15.541137695,-105.486518860,0.000000000,-0.084000528,-16.815948486
1747312816.002772,18.733000000,0.000000000,58004.273437500,0.000000000,0.000000000,-15.541137695,-105.486701965,0.000000000,-0.084000528,-16.815948486
1747312816.005152,18.735000000,0.000000000,58004.273437500,0.000000000,0.000000000,-15.541137695,-105.486869812,0.000000000,-0.084000528,-16.815948486
1747312816.007496,18.738000000,0.000000000,58004.273437500,0.000000000,0.000000000,-15.541137695,-105.487052917,0.000000000,-0.084000528,-16.815948486
1747312816.009832,18.740000000,0.000000000,58004.273437500,0.000000000,0.000000000,-15.541137695,-105.487236023,0.000000000,-0.084000528,-16.815948486
1747312816.012177,18.743000000,0.000000000,58004.273437500,0.000000000,0.000000000,-15.541137695,-105.487419128,0.000000000,-0.084000528,-16.815948486
1747312816.014517,18.745000000,0.000000000,58004.273437500,0.000000000,0.000000000,-15.541137695,-105.487602234,0.000000000,-0.084000528,-16.815948486
1747312816.016838,18.747000000,0.000000000,58004.273437500,0.000000000,0.000000000,-15.541137695,-105.487770081,0.000000000,-0.084000528,-16.815948486
1747312816.019168,18.750000000,0.000000000,58004.273437500,0.000000000,0.000000000,-15.541137695,-105.487953186,0.000000000,-0.084000528,-16.815948486
1747312816.021497,18.752000000,0.000000000,58004.273437500,0.000000000,0.000000000,-15.541137695,-105.488136292,0.000000000,-0.084000528,-16.815948486
1747312816.023857,18.754000000,0.000000000,58004.273437500,0.000000000,0.000000000,-15.541137695,-105.488304138,0.000000000,-0.084000528,-16.815948486
1747312816.026208,18.757000000,0.000000000,58004.273437500,0.000000000,0.000000000,-15.541137695,-105.488487244,0.000000000,-0.084000528,-16.815948486
1747312816.028551,18.759000000,0.000000000,58004.273437500,0.000000000,0.000000000,-15.541137695,-105.488670349,0.000000000,-0.084000528,-16.815948486
1747312816.030914,18.761000000,0.000000000,58004.273437500,0.000000000,0.000000000,-15.541137695,-105.488853455,0.000000000,-0.084000528,-16.815948486
1747312816.033284,18.764000000,0.000000000,58004.273437500,0.000000000,0.000000000,-15.541137695,-105.489021301,0.000000000,-0.084000528,-16.815948486
1747312816.035619,18.766000000,0.000000000,58004.273437500,0.000000000,0.000000000,-15.541137695,-105.489204407,0.000000000,-0.084000528,-16.815948486
1747312816.038021,18.768000000,0.000000000,58004.273437500,0.000000000,0.000000000,-15.541137695,-105.489387512,0.000000000,-0.084000528,-16.815948486
1747312816.040329,18.771000000,0.000000000,58004.273437500,0.000000000,0.000000000,-15.541137695,-105.489570618,0.000000000,-0.084000528,-16.815948486
1747312816.042655,18.773000000,0.000000000,58004.273437500,0.000000000,0.000000000,-15.541137695,-105.489753723,0.000000000,-0.084000528,-16.815948486
1747312816.045017,18.775000000,0.000000000,58004.273437500,0.000000000,0.000000000,-15.541137695,-105.489921570,0.000000000,-0.084000528,-16.815948486
