__time,/psm_joint_telemetry/header/stamp,/psm_joint_telemetry/insertion/effort,/psm_joint_telemetry/insertion/position,/psm_joint_telemetry/insertion/velocity,/psm_joint_telemetry/pitch/effort,/psm_joint_telemetry/pitch/position,/psm_joint_telemetry/pitch/velocity,/psm_joint_telemetry/roll/effort,/psm_joint_telemetry/roll/position,/psm_joint_telemetry/roll/velocity
1746519746.594723,3.671000000,0.000000000,0.000000000,0.000000000,0.000000000,0.000000000,-1.000000000,0.000000000,0.000000000,0.000000000
1746519746.605092,3.682000000,0.000000000,0.000000000,0.000000000,0.000000000,0.000000000,-1.000000000,0.000000000,0.000000000,0.000000000
1746519746.615683,3.692000000,0.000000000,0.000000000,0.000000000,0.000000000,0.000000000,-2.000000000,0.000000000,0.000000000,0.000000000
1746519746.626069,3.703000000,0.000000000,0.000000000,0.000000000,0.000000000,0.000000000,-2.000000000,0.000000000,0.000000000,0.000000000
1746519746.636449,3.713000000,0.000000000,0.000000000,0.000000000,0.000000000,0.000000000,-2.000000000,0.000000000,0.000000000,0.000000000
1746519746.647171,3.723000000,0.000000000,0.000000000,0.000000000,0.000000000,0.000000000,-2.000000000,0.000000000,0.000000000,0.000000000
1746519746.657751,3.734000000,0.000000000,0.000000000,0.000000000,0.000000000,0.000000000,-2.000000000,0.000000000,0.000000000,0.000000000
1746519746.668135,3.745000000,0.000000000,0.000000000,0.000000000,0.000000000,0.000000000,-2.000000000,0.000000000,0.000000000,0.000000000
1746519746.678472,3.755000000,0.000000000,0.000000000,0.000000000,0.000000000,0.000000000,-2.000000000,0.000000000,0.000000000,0.000000000
1746519746.688847,3.765000000,0.000000000,0.000000000,0.000000000,0.000000000,0.000000000,-2.000000000,0.000000000,0.000000000,0.000000000
1746519746.699430,3.776000000,0.000000000,0.000000000,0.000000000,0.000000000,0.000000000,-2.000000000,0.000000000,0.000000000,0.000000000
1746519746.709842,3.786000000,0.000000000,0.000000000,0.000000000,0.000000000,0.000000000,-2.000000000,0.000000000,0.000000000,0.000000000
1746519746.720299,3.797000000,0.000000000,0.000000000,0.000000000,0.000000000,0.000000000,-3.000000000,0.000000000,0.000000000,0.000000000
1746519746.730767,3.807000000,0.000000000,0.000000000,0.000000000,0.000000000,0.000000000,-3.000000000,0.000000000,0.000000000,0.000000000
1746519746.741249,3.818000000,0.000000000,0.000000000,0.000000000,0.000000000,0.000000000,-3.000000000,0.000000000,0.000000000,0.000000000
1746519746.751701,3.828000000,0.000000000,0.000000000,0.000000000,0.000000000,0.000000000,-3.000000000,0.000000000,0.000000000,0.000000000
1746519746.762067,3.839000000,0.000000000,0.000000000,0.000000000,0.000000000,0.000000000,-3.000000000,0.000000000,0.000000000,0.000000000
1746519746.772551,3.849000000,0.000000000,0.000000000,0.000000000,0.000000000,0.000000000,-3.000000000,0.000000000,0.000000000,0.000000000
1746519746.783215,3.860000000,0.000000000,0.000000000,0.000000000,0.000000000,0.000000000,-3.000000000,0.000000000,0.000000000,0.000000000
1746519746.793667,3.870000000,0.000000000,0.000000000,0.000000000,0.000000000,0.000000000,-3.000000000,0.000000000,0.000000000,0.000000000
1746519746.804245,3.881000000,0.000000000,0.000000000,0.000000000,0.000000000,0.000000000,-3.000000000,0.000000000,0.000000000,0.000000000
1746519746.814776,3.891000000,0.000000000,0.000000000,0.000000000,0.000000000,0.000000000,-3.000000000,0.000000000,0.000000000,0.000000000
1746519746.825193,3.902000000,0.000000000,0.000000000,0.000000000,0.000000000,0.000000000,-4.000000000,0.000000000,0.000000000,0.000000000
1746519746.835679,3.912000000,0.000000000,0.000000000,0.000000000,0.000000000,0.000000000,-4.000000000,0.000000000,0.000000000,0.000000000
1746519746.846310,3.923000000,0.000000000,0.000000000,0.000000000,0.000000000,0.000000000,-4.000000000,0.000000000,0.000000000,0.000000000
1746519746.856627,3.933000000,0.000000000,0.000000000,0.000000000,0.000000000,0.000000000,-4.000000000,0.000000000,0.000000000,0.000000000
1746519746.867229,3.944000000,0.000000000,0.000000000,0.000000000,0.000000000,0.000000000,-4.000000000,0.000000000,0.000000000,0.000000000
1746519746.877671,3.954000000,0.000000000,0.000000000,0.000000000,0.000000000,0.000000000,-4.000000000,0.000000000,0.000000000,0.000000000
1746519746.888209,3.965000000,0.000000000,0.000000000,0.000000000,0.000000000,0.000000000,-4.000000000,0.000000000,0.000000000,0.000000000
1746519746.898747,3.975000000,0.000000000,0.000000000,0.000000000,0.000000000,0.000000000,-4.000000000,0.000000000,0.000000000,0.000000000
1746519746.909260,3.986000000,0.000000000,0.000000000,0.000000000,0.000000000,0.000000000,-4.000000000,0.000000000,0.000000000,0.000000000
1746519746.919705,3.996000000,0.000000000,0.000000000,0.000000000,0.000000000,0.000000000,-4.000000000,0.000000000,0.000000000,0.000000000
1746519746.930137,4.007000000,0.000000000,0.000000000,0.000000000,0.000000000,0.000000000,-5.000000000,0.000000000,0.000000000,0.000000000
1746519746.940592,4.017000000,0.000000000,0.000000000,0.000000000,0.000000000,0.000000000,-5.000000000,0.000000000,0.000000000,0.000000000
1746519746.951163,4.028000000,0.000000000,0.000000000,0.000000000,0.000000000,0.000000000,-5.000000000,0.000000000,0.000000000,0.000000000
1746519746.961663,4.038000000,0.000000000,0.000000000,0.000000000,0.000000000,0.000000000,-5.000000000,0.000000000,0.000000000,0.000000000
1746519746.972054,4.049000000,0.000000000,0.000000000,0.000000000,0.000000000,0.000000000,-5.000000000,0.000000000,0.000000000,0.000000000
1746519746.982541,4.059000000,0.000000000,0.000000000,0.000000000,0.000000000,0.000000000,-5.000000000,0.000000000,0.000000000,0.000000000
1746519746.993340,4.070000000,0.000000000,0.000000000,0.000000000,0.000000000,0.000000000,-5.000000000,0.000000000,0.000000000,0.000000000
1746519747.003915,4.080000000,0.000000000,0.000000000,0.000000000,0.000000000,0.000000000,-5.000000000,0.000000000,0.000000000,0.000000000
1746519747.014439,4.091000000,0.000000000,0.000000000,0.000000000,0.000000000,0.000000000,-5.000000000,0.000000000,0.000000000,0.000000000
1746519747.024865,4.101000000,0.000000000,0.000000000,0.000000000,0.000000000,0.000000000,-5.000000000,0.000000000,0.000000000,0.000000000
1746519747.035345,4.112000000,0.000000000,0.000000000,0.000000000,0.000000000,0.000000000,-6.000000000,0.000000000,0.000000000,0.000000000
1746519747.046047,4.122000000,0.000000000,0.000000000,0.000000000,0.000000000,0.000000000,-6.000000000,0.000000000,0.000000000,0.000000000
1746519747.056604,4.133000000,0.000000000,0.000000000,0.000000000,0.000000000,0.000000000,-6.000000000,0.000000000,0.000000000,0.000000000
1746519747.066962,4.143000000,0.000000000,0.000000000,0.000000000,0.000000000,0.000000000,-6.000000000,0.000000000,0.000000000,0.000000000
1746519747.077408,4.154000000,0.000000000,0.000000000,0.000000000,0.000000000,0.000000000,-6.000000000,0.000000000,0.000000000,0.000000000
1746519747.087923,4.164000000,0.000000000,0.000000000,0.000000000,0.000000000,0.000000000,-6.000000000,0.000000000,0.000000000,0.000000000
1746519747.098488,4.175000000,0.000000000,0.000000000,0.000000000,0.000000000,0.000000000,-6.000000000,0.000000000,0.000000000,0.000000000
1746519747.108975,4.185000000,0.000000000,0.000000000,0.000000000,0.000000000,0.000000000,-6.000000000,0.000000000,0.000000000,0.000000000
1746519747.119480,4.196000000,0.000000000,0.000000000,0.000000000,0.000000000,0.000000000,-6.000000000,0.000000000,0.000000000,0.000000000
1746519747.129961,4.206000000,0.000000000,0.000000000,0.000000000,0.000000000,0.000000000,-6.000000000,0.000000000,0.000000000,0.000000000
1746519747.140441,4.217000000,0.000000000,0.000000000,0.000000000,0.000000000,0.000000000,-7.000000000,0.000000000,0.000000000,0.000000000
1746519747.150929,4.227000000,0.000000000,0.000000000,0.000000000,0.000000000,0.000000000,-7.000000000,0.000000000,0.000000000,0.000000000
1746519747.161337,4.238000000,0.000000000,0.000000000,0.000000000,0.000000000,0.000000000,-7.000000000,0.000000000,0.000000000,0.000000000
1746519747.171892,4.248000000,0.000000000,0.000000000,0.000000000,0.000000000,0.000000000,-7.000000000,0.000000000,0.000000000,0.000000000
1746519747.182618,4.259000000,0.000000000,0.000000000,0.000000000,0.000000000,0.000000000,-7.000000000,0.000000000,0.000000000,0.000000000
1746519747.193438,4.270000000,0.000000000,0.000000000,0.000000000,0.000000000,0.000000000,-7.000000000,0.000000000,0.000000000,0.000000000
1746519747.203921,4.280000000,0.000000000,0.000000000,0.000000000,0.000000000,0.000000000,-7.000000000,0.000000000,0.000000000,0.000000000
1746519747.214441,4.291000000,0.000000000,0.000000000,0.000000000,0.000000000,0.000000000,-7.000000000,0.000000000,0.000000000,0.000000000
1746519747.225001,4.301000000,0.000000000,0.000000000,0.000000000,0.000000000,0.000000000,-7.000000000,0.000000000,0.000000000,0.000000000
1746519747.235626,4.312000000,0.000000000,0.000000000,0.000000000,0.000000000,0.000000000,-7.000000000,0.000000000,0.000000000,0.000000000
1746519747.246244,4.323000000,0.000000000,0.000000000,0.000000000,0.000000000,0.000000000,-8.000000000,0.000000000,0.000000000,0.000000000
1746519747.256650,4.333000000,0.000000000,0.000000000,0.000000000,0.000000000,0.000000000,-8.000000000,0.000000000,0.000000000,0.000000000
1746519747.267086,4.344000000,0.000000000,0.000000000,0.000000000,0.000000000,0.000000000,-8.000000000,0.000000000,0.000000000,0.000000000
1746519747.277793,4.354000000,0.000000000,0.000000000,0.000000000,0.000000000,0.000000000,-8.000000000,0.000000000,0.000000000,0.000000000
1746519747.289373,4.365000000,0.000000000,0.000000000,0.000000000,0.000000000,0.000000000,-8.000000000,0.000000000,0.000000000,0.000000000
1746519747.300116,4.376000000,0.000000000,0.000000000,0.000000000,0.000000000,0.000000000,-8.000000000,0.000000000,0.000000000,0.000000000
1746519747.310660,4.387000000,0.000000000,0.000000000,0.000000000,0.000000000,0.000000000,-8.000000000,0.000000000,0.000000000,0.000000000
1746519747.321240,4.398000000,0.000000000,0.000000000,0.000000000,0.000000000,0.000000000,-8.000000000,0.000000000,0.000000000,0.000000000
1746519747.331804,4.408000000,0.000000000,0.000000000,0.000000000,0.000000000,0.000000000,-8.000000000,0.000000000,0.000000000,0.000000000
1746519747.342363,4.419000000,0.000000000,0.000000000,0.000000000,0.000000000,0.000000000,-8.000000000,0.000000000,0.000000000,0.000000000
1746519747.352915,4.429000000,0.000000000,0.000000000,0.000000000,0.000000000,0.000000000,-9.000000000,0.000000000,0.000000000,0.000000000
1746519747.363453,4.440000000,0.000000000,0.000000000,0.000000000,0.000000000,0.000000000,-9.000000000,0.000000000,0.000000000,0.000000000
1746519747.374151,4.450000000,0.000000000,0.000000000,0.000000000,0.000000000,0.000000000,-9.000000000,0.000000000,0.000000000,0.000000000
1746519747.384535,4.461000000,0.000000000,0.000000000,0.000000000,0.000000000,0.000000000,-9.000000000,0.000000000,0.000000000,0.000000000
1746519747.394870,4.471000000,0.000000000,0.000000000,0.000000000,0.000000000,0.000000000,-9.000000000,0.000000000,0.000000000,0.000000000
1746519747.405318,4.482000000,0.000000000,0.000000000,0.000000000,0.000000000,0.000000000,-9.000000000,0.000000000,0.000000000,0.000000000
1746519747.415869,4.492000000,0.000000000,0.000000000,0.000000000,0.000000000,0.000000000,-9.000000000,0.000000000,0.000000000,0.000000000
1746519747.426386,4.503000000,0.000000000,0.000000000,0.000000000,0.000000000,0.000000000,-9.000000000,0.000000000,0.000000000,0.000000000
1746519747.436813,4.513000000,0.000000000,0.000000000,0.000000000,0.000000000,0.000000000,-9.000000000,0.000000000,0.000000000,0.000000000
1746519747.447277,4.524000000,0.000000000,0.000000000,0.000000000,0.000000000,-0.100000001,-9.000000000,0.000000000,0.000000000,0.000000000
1746519747.457794,4.534000000,0.000000000,0.000000000,0.000000000,0.000000000,-0.189999998,-10.000000000,0.000000000,0.000000000,0.000000000
1746519747.468445,4.545000000,0.000000000,0.000000000,0.000000000,0.000000000,-0.270999998,-10.000000000,0.000000000,0.000000000,0.000000000
1746519747.479134,4.555000000,0.000000000,0.000000000,0.000000000,0.000000000,-0.343899995,-10.000000000,0.000000000,0.000000000,0.000000000
1746519747.489536,4.566000000,0.000000000,0.000000000,0.000000000,0.000000000,-0.409509987,-10.000000000,0.000000000,0.000000000,0.000000000
1746519747.499973,4.576000000,0.000000000,0.000000000,0.000000000,0.000000000,-0.468558967,-10.000000000,0.000000000,0.000000000,0.000000000
1746519747.510459,4.587000000,0.000000000,0.000000000,0.000000000,0.000000000,-0.521703064,-10.000000000,0.000000000,0.000000000,0.000000000
1746519747.520944,4.597000000,0.000000000,0.000000000,0.000000000,0.000000000,-0.569532752,-10.000000000,0.000000000,0.000000000,0.000000000
1746519747.531537,4.608000000,0.000000000,0.000000000,0.000000000,0.000000000,-0.612579465,-10.000000000,0.000000000,0.000000000,0.000000000
1746519747.541919,4.618000000,0.000000000,0.000000000,0.000000000,0.000000000,-0.651321530,-10.000000000,0.000000000,0.000000000,0.000000000
1746519747.552459,4.629000000,0.000000000,0.000000000,0.000000000,0.000000000,-0.686189413,-10.000000000,0.000000000,0.000000000,0.000000000
1746519747.562968,4.639000000,0.000000000,0.000000000,0.000000000,0.000000000,-0.717570484,-11.000000000,0.000000000,0.000000000,0.000000000
1746519747.573452,4.650000000,0.000000000,0.000000000,0.000000000,0.000000000,-0.745813429,-11.000000000,0.000000000,0.000000000,0.000000000
1746519747.583921,4.660000000,0.000000000,0.000000000,0.000000000,0.000000000,-0.771232069,-11.000000000,0.000000000,0.000000000,0.000000000
1746519747.594336,4.671000000,0.000000000,0.000000000,0.000000000,0.000000000,-0.794108868,-11.000000000,0.000000000,0.000000000,0.000000000
1746519747.604733,4.681000000,0.000000000,0.000000000,0.000000000,0.000000000,-0.814697981,-11.000000000,0.000000000,0.000000000,0.000000000
1746519747.615232,4.692000000,0.000000000,0.000000000,0.000000000,0.000000000,-0.833228171,-11.000000000,0.000000000,0.000000000,0.000000000
1746519747.625927,4.702000000,0.000000000,0.000000000,0.000000000,0.000000000,-0.849905372,-11.000000000,0.000000000,0.000000000,0.000000000
1746519747.636333,4.713000000,0.000000000,0.000000000,0.000000000,0.000000000,-0.864914834,-11.000000000,0.000000000,0.000000000,0.000000000
1746519747.646778,4.723000000,0.000000000,0.000000000,0.000000000,0.000000000,-0.878423333,-11.000000000,0.000000000,0.000000000,0.000000000
1746519747.657172,4.734000000,0.000000000,0.000000000,0.000000000,0.000000000,-0.890581012,-11.000000000,0.000000000,0.000000000,0.000000000
1746519747.667540,4.744000000,0.000000000,0.000000000,0.000000000,0.000000000,-0.901522934,-12.000000000,0.000000000,0.000000000,0.000000000
1746519747.678021,4.754000000,0.000000000,0.000000000,0.000000000,0.000000000,-1.011370659,-12.000000000,0.000000000,0.000000000,0.000000000
1746519747.688431,4.765000000,0.000000000,0.000000000,0.000000000,0.000000000,-1.110233545,-12.000000000,0.000000000,0.000000000,0.000000000
1746519747.698987,4.775000000,0.000000000,0.000000000,0.000000000,0.000000000,-1.199210167,-12.000000000,0.000000000,0.000000000,0.000000000
1746519747.709457,4.786000000,0.000000000,0.000000000,0.000000000,0.000000000,-1.279289126,-12.000000000,0.000000000,0.000000000,0.000000000
1746519747.719908,4.796000000,0.000000000,0.000000000,0.000000000,0.000000000,-1.351360202,-12.000000000,0.000000000,0.000000000,0.000000000
1746519747.730397,4.807000000,0.000000000,0.000000000,0.000000000,0.000000000,-1.416224241,-12.000000000,0.000000000,0.000000000,0.000000000
1746519747.740777,4.817000000,0.000000000,0.000000000,0.000000000,0.000000000,-1.474601865,-12.000000000,0.000000000,0.000000000,0.000000000
1746519747.751291,4.828000000,0.000000000,0.000000000,0.000000000,0.000000000,-1.527141690,-12.000000000,0.000000000,0.000000000,0.000000000
1746519747.761754,4.838000000,0.000000000,0.000000000,0.000000000,0.000000000,-1.574427485,-12.000000000,0.000000000,0.000000000,0.000000000
1746519747.772270,4.849000000,0.000000000,0.000000000,0.000000000,0.000000000,-1.616984725,-13.000000000,0.000000000,0.000000000,0.000000000
1746519747.782646,4.859000000,0.000000000,0.000000000,0.000000000,0.000000000,-1.655286312,-13.000000000,0.000000000,0.000000000,0.000000000
1746519747.793051,4.870000000,0.000000000,0.000000000,0.000000000,0.000000000,-1.689757705,-13.000000000,0.000000000,0.000000000,0.000000000
1746519747.803474,4.880000000,0.000000000,0.000000000,0.000000000,0.000000000,-1.720781922,-13.000000000,0.000000000,0.000000000,0.000000000
1746519747.813939,4.890000000,0.000000000,0.000000000,0.000000000,0.000000000,-1.748703718,-13.000000000,0.000000000,0.000000000,0.000000000
1746519747.824460,4.901000000,0.000000000,0.000000000,0.000000000,0.000000000,-1.773833394,-13.000000000,0.000000000,0.000000000,0.000000000
1746519747.834993,4.911000000,0.000000000,0.000000000,0.000000000,0.000000000,-1.896449924,-13.000000000,0.000000000,0.000000000,0.000000000
1746519747.845523,4.922000000,0.000000000,0.000000000,0.000000000,0.000000000,-2.006804943,-13.000000000,0.000000000,0.000000000,0.000000000
1746519747.856474,4.933000000,0.000000000,0.000000000,0.000000000,0.000000000,-2.106124401,-13.000000000,0.000000000,0.000000000,0.000000000
1746519747.867727,4.944000000,0.000000000,0.000000000,0.000000000,0.000000000,-2.195511818,-13.000000000,0.000000000,0.000000000,0.000000000
1746519747.878311,4.955000000,0.000000000,0.000000000,0.000000000,0.000000000,-2.275960684,-14.000000000,0.000000000,0.000000000,0.000000000
1746519747.888910,4.965000000,0.000000000,0.000000000,0.000000000,0.000000000,-2.348364592,-14.000000000,0.000000000,0.000000000,0.000000000
1746519747.899276,4.976000000,0.000000000,0.000000000,0.000000000,0.000000000,-2.413527966,-14.000000000,0.000000000,0.000000000,0.000000000
1746519747.909686,4.986000000,0.000000000,0.000000000,0.000000000,0.000000000,-2.472175121,-14.000000000,0.000000000,0.000000000,0.000000000
1746519747.920217,4.997000000,0.000000000,0.000000000,0.000000000,0.000000000,-2.624957561,-14.000000000,0.000000000,0.000000000,0.000000000
1746519747.930631,5.007000000,0.000000000,0.000000000,0.000000000,0.000000000,-2.762461901,-14.000000000,0.000000000,0.000000000,0.000000000
1746519747.941042,5.018000000,0.000000000,0.000000000,0.000000000,0.000000000,-2.886215687,-14.000000000,0.000000000,0.000000000,0.000000000
1746519747.951585,5.028000000,0.000000000,0.000000000,0.000000000,0.000000000,-2.997594118,-14.000000000,0.000000000,0.000000000,0.000000000
1746519747.962089,5.039000000,0.000000000,0.000000000,0.000000000,0.000000000,-3.097834826,-14.000000000,0.000000000,0.000000000,0.000000000
1746519747.972741,5.049000000,0.000000000,0.000000000,0.000000000,0.000000000,-3.188051462,-14.000000000,0.000000000,0.000000000,0.000000000
1746519747.983342,5.060000000,0.000000000,0.000000000,0.000000000,0.000000000,-3.269246340,-15.000000000,0.000000000,0.000000000,0.000000000
1746519747.993807,5.070000000,0.000000000,0.000000000,0.000000000,0.000000000,-3.342321634,-15.000000000,0.000000000,0.000000000,0.000000000
1746519748.004208,5.081000000,0.000000000,0.000000000,0.000000000,0.000000000,-3.408089399,-15.000000000,0.000000000,0.000000000,0.000000000
1746519748.014731,5.091000000,0.000000000,0.000000000,0.000000000,0.000000000,-3.467280388,-15.000000000,0.000000000,0.000000000,0.000000000
1746519748.025206,5.102000000,0.000000000,0.000000000,0.000000000,0.000000000,-3.520552397,-15.000000000,0.000000000,0.000000000,0.000000000
1746519748.035683,5.112000000,0.000000000,0.000000000,0.000000000,0.000000000,-3.568497181,-15.000000000,0.000000000,0.000000000,0.000000000
1746519748.046232,5.123000000,0.000000000,0.000000000,0.000000000,0.000000000,-3.711647272,-15.000000000,0.000000000,0.000000000,0.000000000
1746519748.056587,5.133000000,0.000000000,0.000000000,0.000000000,0.000000000,-3.840482473,-15.000000000,0.000000000,0.000000000,0.000000000
