__time,/psm_joint_telemetry/header/stamp,/psm_joint_telemetry/insertion/effort,/psm_joint_telemetry/insertion/position,/psm_joint_telemetry/insertion/velocity,/psm_joint_telemetry/pitch/effort,/psm_joint_telemetry/pitch/position,/psm_joint_telemetry/pitch/velocity,/psm_joint_telemetry/roll/effort,/psm_joint_telemetry/roll/position,/psm_joint_telemetry/roll/velocity
1748264180.786899,44.447000000,0.000000000,0.000000000,0.000000000,0.000000000,-1.770793438,-74.281455994,0.000000000,-0.066000223,-16.511642456
1748264180.789445,44.449000000,0.000000000,0.000000000,0.000000000,0.000000000,-1.770793438,-74.281455994,0.000000000,-0.066000223,-16.511642456
1748264180.791988,44.452000000,0.000000000,0.000000000,0.000000000,0.000000000,-1.770793438,-74.281455994,0.000000000,-0.066000223,-16.511642456
1748264180.794539,44.454000000,0.000000000,0.000000000,0.000000000,0.000000000,-1.770793438,-74.281455994,0.000000000,-0.066000223,-16.511642456
1748264180.797005,44.457000000,0.000000000,0.000000000,0.000000000,0.000000000,-1.770793438,-74.281455994,0.000000000,-0.066000223,-16.511642456
1748264180.799386,44.459000000,0.000000000,0.000000000,0.000000000,0.000000000,-1.770793438,-74.281455994,0.000000000,-0.066000223,-16.511642456
1748264180.801760,44.462000000,0.000000000,0.000000000,0.000000000,0.000000000,-1.770793438,-74.281455994,0.000000000,-0.066000223,-16.511642456
1748264180.804134,44.464000000,0.000000000,0.000000000,0.000000000,0.000000000,-1.770793438,-74.281455994,0.000000000,-0.066000223,-16.511642456
1748264180.806504,44.466000000,0.000000000,0.000000000,0.000000000,0.000000000,-1.770793438,-74.281455994,0.000000000,-0.066000223,-16.511642456
1748264180.808894,44.469000000,0.000000000,0.000000000,0.000000000,0.000000000,-1.770793438,-74.281455994,0.000000000,-0.066000223,-16.511642456
1748264180.811636,44.471000000,0.000000000,0.000000000,0.000000000,0.000000000,-1.770793438,-74.281455994,0.000000000,-0.066000223,-16.511642456
1748264180.814070,44.474000000,0.000000000,0.000000000,0.000000000,0.000000000,-1.770793438,-74.281455994,0.000000000,-0.066000223,-16.511642456
1748264180.816505,44.476000000,0.000000000,0.000000000,0.000000000,0.000000000,-1.770793438,-74.281455994,0.000000000,-0.066000223,-16.511642456
1748264180.818978,44.479000000,0.000000000,0.000000000,0.000000000,0.000000000,-1.770793438,-74.281455994,0.000000000,-0.066000223,-16.511642456
1748264180.821421,44.481000000,0.000000000,0.000000000,0.000000000,0.000000000,-1.770793438,-74.281455994,0.000000000,-0.066000223,-16.511642456
1748264180.823973,44.484000000,0.000000000,0.000000000,0.000000000,0.000000000,-1.770793438,-74.281455994,0.000000000,-0.066000223,-16.511642456
1748264180.826488,44.486000000,0.000000000,0.000000000,0.000000000,0.000000000,-1.770793438,-74.281455994,0.000000000,-0.066000223,-16.511642456
1748264180.829031,44.489000000,0.000000000,0.000000000,0.000000000,0.000000000,-1.770793438,-74.281455994,0.000000000,-0.066000223,-16.511642456
1748264180.831507,44.491000000,0.000000000,0.000000000,0.000000000,0.000000000,-1.770793438,-74.281455994,0.000000000,-0.066000223,-16.511642456
1748264180.833930,44.494000000,0.000000000,0.000000000,0.000000000,0.000000000,-1.770793438,-74.281455994,0.000000000,-0.066000223,-16.511642456
1748264180.836252,44.496000000,0.000000000,0.000000000,0.000000000,0.000000000,-1.770793438,-74.281455994,0.000000000,-0.066000223,-16.511642456
1748264180.838595,44.498000000,0.000000000,0.000000000,0.000000000,0.000000000,-1.770793438,-74.281455994,0.000000000,-0.066000223,-16.511642456
1748264180.840941,44.501000000,0.000000000,0.000000000,0.000000000,0.000000000,-1.770793438,-74.281455994,0.000000000,-0.066000223,-16.511642456
1748264180.843328,44.503000000,0.000000000,0.000000000,0.000000000,0.000000000,-1.770793438,-74.281455994,0.000000000,-0.066000223,-16.511642456
1748264180.845712,44.506000000,0.000000000,0.000000000,0.000000000,0.000000000,-1.770793438,-74.281455994,0.000000000,-0.066000223,-16.511642456
1748264180.848099,44.508000000,0.000000000,0.000000000,0.000000000,0.000000000,-1.770793438,-74.281455994,0.000000000,-0.066000223,-16.511642456
1748264180.850428,44.510000000,0.000000000,0.000000000,0.000000000,0.000000000,-1.770793438,-74.281455994,0.000000000,-0.066000223,-16.511642456
1748264180.852809,44.513000000,0.000000000,0.000000000,0.000000000,0.000000000,-1.770793438,-74.281455994,0.000000000,-0.066000223,-16.511642456
1748264180.855205,44.515000000,0.000000000,0.000000000,0.000000000,0.000000000,-1.770793438,-74.281455994,0.000000000,-0.066000223,-16.511642456
1748264180.857580,44.517000000,0.000000000,0.000000000,0.000000000,0.000000000,-1.770793438,-74.281455994,0.000000000,-0.066000223,-16.511642456
1748264180.859955,44.520000000,0.000000000,0.000000000,0.000000000,0.000000000,-1.770793438,-74.281455994,0.000000000,-0.066000223,-16.511642456
1748264180.862325,44.522000000,0.000000000,0.000000000,0.000000000,0.000000000,-1.770793438,-74.281455994,0.000000000,-0.066000223,-16.511642456
1748264180.864711,44.525000000,0.000000000,0.000000000,0.000000000,0.000000000,-1.770793438,-74.281455994,0.000000000,-0.066000223,-16.511642456
1748264180.867105,44.527000000,0.000000000,0.000000000,0.000000000,0.000000000,-1.770793438,-74.281455994,0.000000000,-0.066000223,-16.511642456
1748264180.869483,44.529000000,0.000000000,0.000000000,0.000000000,0.000000000,-1.770793438,-74.281455994,0.000000000,-0.066000223,-16.511642456
1748264180.871878,44.532000000,0.000000000,0.000000000,0.000000000,0.000000000,-1.770793438,-74.281455994,0.000000000,-0.066000223,-16.511642456
1748264180.874251,44.534000000,0.000000000,0.000000000,0.000000000,0.000000000,-1.770793438,-74.281455994,0.000000000,-0.066000223,-16.511642456
1748264180.876647,44.536000000,0.000000000,0.000000000,0.000000000,0.000000000,-1.770793438,-74.281455994,0.000000000,-0.066000223,-16.511642456
1748264180.879044,44.539000000,0.000000000,0.000000000,0.000000000,0.000000000,-1.770793438,-74.281455994,0.000000000,-0.066000223,-16.511642456
1748264180.881443,44.541000000,0.000000000,0.000000000,0.000000000,0.000000000,-1.770793438,-74.281455994,0.000000000,-0.066000223,-16.511642456
1748264180.883827,44.544000000,0.000000000,0.000000000,0.000000000,0.000000000,-1.770793438,-74.281455994,0.000000000,-0.066000223,-16.511642456
1748264180.886239,44.546000000,0.000000000,0.000000000,0.000000000,0.000000000,-1.770793438,-74.281455994,0.000000000,-0.066000223,-16.511642456
1748264180.888650,44.548000000,0.000000000,0.000000000,0.000000000,0.000000000,-1.770793438,-74.281455994,0.000000000,-0.066000223,-16.511642456
1748264180.891102,44.551000000,0.000000000,0.000000000,0.000000000,0.000000000,-1.770793438,-74.281455994,0.000000000,-0.066000223,-16.511642456
1748264180.893492,44.553000000,0.000000000,0.000000000,0.000000000,0.000000000,-1.770793438,-74.281455994,0.000000000,-0.066000223,-16.511642456
1748264180.895984,44.556000000,0.000000000,0.000000000,0.000000000,0.000000000,-1.770793438,-74.281455994,0.000000000,-0.066000223,-16.511642456
1748264180.898447,44.558000000,0.000000000,0.000000000,0.000000000,0.000000000,-1.770793438,-74.281455994,0.000000000,-0.066000223,-16.511642456
1748264180.900823,44.561000000,0.000000000,0.000000000,0.000000000,0.000000000,-1.770793438,-74.281455994,0.000000000,-0.066000223,-16.511642456
1748264180.903165,44.563000000,0.000000000,0.000000000,0.000000000,0.000000000,-1.770793438,-74.281455994,0.000000000,-0.066000223,-16.511642456
1748264180.905521,44.565000000,0.000000000,0.000000000,0.000000000,0.000000000,-1.770793438,-74.281455994,0.000000000,-0.066000223,-16.511642456
1748264180.907897,44.568000000,0.000000000,0.000000000,0.000000000,0.000000000,-1.770793438,-74.281455994,0.000000000,-0.066000223,-16.511642456
1748264180.910282,44.570000000,0.000000000,0.000000000,0.000000000,0.000000000,-1.770793438,-74.281455994,0.000000000,-0.066000223,-16.511642456
1748264180.912689,44.573000000,0.000000000,0.000000000,0.000000000,0.000000000,-1.770793438,-74.281455994,0.000000000,-0.066000223,-16.511642456
1748264180.915146,44.575000000,0.000000000,0.000000000,0.000000000,0.000000000,-1.770793438,-74.281455994,0.000000000,-0.066000223,-16.511642456
1748264180.917628,44.577000000,0.000000000,0.000000000,0.000000000,0.000000000,-1.770793438,-74.281455994,0.000000000,-0.066000223,-16.511642456
1748264180.920011,44.580000000,0.000000000,0.000000000,0.000000000,0.000000000,-1.770793438,-74.281455994,0.000000000,-0.066000223,-16.511642456
1748264180.922444,44.582000000,0.000000000,0.000000000,0.000000000,0.000000000,-1.770793438,-74.281455994,0.000000000,-0.066000223,-16.511642456
1748264180.924914,44.585000000,0.000000000,0.000000000,0.000000000,0.000000000,-1.770793438,-74.281455994,0.000000000,-0.066000223,-16.511642456
1748264180.927413,44.587000000,0.000000000,0.000000000,0.000000000,0.000000000,-1.770793438,-74.281455994,0.000000000,-0.066000223,-16.511642456
1748264180.929924,44.590000000,0.000000000,0.000000000,0.000000000,0.000000000,-1.770793438,-74.281455994,0.000000000,-0.066000223,-16.511642456
1748264180.932381,44.592000000,0.000000000,0.000000000,0.000000000,0.000000000,-1.770793438,-74.281455994,0.000000000,-0.066000223,-16.511642456
1748264180.934847,44.595000000,0.000000000,0.000000000,0.000000000,0.000000000,-1.770793438,-74.281455994,0.000000000,-0.066000223,-16.511642456
1748264180.937270,44.597000000,0.000000000,0.000000000,0.000000000,0.000000000,-1.770793438,-74.281455994,0.000000000,-0.066000223,-16.511642456
1748264180.939738,44.600000000,0.000000000,0.000000000,0.000000000,0.000000000,-1.770793438,-74.281455994,0.000000000,-0.066000223,-16.511642456
1748264180.942225,44.602000000,0.000000000,0.000000000,0.000000000,0.000000000,-1.770793438,-74.281455994,0.000000000,-0.066000223,-16.511642456
1748264180.944626,44.604000000,0.000000000,0.000000000,0.000000000,0.000000000,-1.770793438,-74.281455994,0.000000000,-0.066000223,-16.511642456
1748264180.947025,44.607000000,0.000000000,0.000000000,0.000000000,0.000000000,-1.770793438,-74.281455994,0.000000000,-0.066000223,-16.511642456
1748264180.949476,44.609000000,0.000000000,0.000000000,0.000000000,0.000000000,-1.770793438,-74.281455994,0.000000000,-0.066000223,-16.511642456
1748264180.951948,44.612000000,0.000000000,0.000000000,0.000000000,0.000000000,-1.770793438,-74.281455994,0.000000000,-0.066000223,-16.511642456
1748264180.954400,44.614000000,0.000000000,0.000000000,0.000000000,0.000000000,-1.770793438,-74.281455994,0.000000000,-0.066000223,-16.511642456
1748264180.956903,44.617000000,0.000000000,0.000000000,0.000000000,0.000000000,-1.770793438,-74.281455994,0.000000000,-0.066000223,-16.511642456
1748264180.959390,44.619000000,0.000000000,0.000000000,0.000000000,0.000000000,-1.770793438,-74.281455994,0.000000000,-0.066000223,-16.511642456
1748264180.961798,44.622000000,0.000000000,0.000000000,0.000000000,0.000000000,-1.770793438,-74.281455994,0.000000000,-0.066000223,-16.511642456
1748264180.964138,44.624000000,0.000000000,0.000000000,0.000000000,0.000000000,-1.770793438,-74.281455994,0.000000000,-0.066000223,-16.511642456
1748264180.966587,44.626000000,0.000000000,0.000000000,0.000000000,0.000000000,-1.770793438,-74.281455994,0.000000000,-0.066000223,-16.511642456
1748264180.969036,44.629000000,0.000000000,0.000000000,0.000000000,0.000000000,-1.770793438,-74.281455994,0.000000000,-0.066000223,-16.511642456
1748264180.971491,44.631000000,0.000000000,0.000000000,0.000000000,0.000000000,-1.770793438,-74.281455994,0.000000000,-0.066000223,-16.511642456
1748264180.973946,44.634000000,0.000000000,0.000000000,0.000000000,0.000000000,-1.770793438,-74.281455994,0.000000000,-0.066000223,-16.511642456
1748264180.976391,44.636000000,0.000000000,0.000000000,0.000000000,0.000000000,-1.770793438,-74.281455994,0.000000000,-0.066000223,-16.511642456
1748264180.978776,44.639000000,0.000000000,0.000000000,0.000000000,0.000000000,-1.770793438,-74.281455994,0.000000000,-0.066000223,-16.511642456
1748264180.981184,44.641000000,0.000000000,0.000000000,0.000000000,0.000000000,-1.770793438,-74.281455994,0.000000000,-0.066000223,-16.511642456
1748264180.983646,44.643000000,0.000000000,0.000000000,0.000000000,0.000000000,-1.770793438,-74.281455994,0.000000000,-0.066000223,-16.511642456
1748264180.986127,44.646000000,0.000000000,0.000000000,0.000000000,0.000000000,-1.770793438,-74.281455994,0.000000000,-0.066000223,-16.511642456
1748264180.988609,44.648000000,0.000000000,0.000000000,0.000000000,0.000000000,-1.770793438,-74.281455994,0.000000000,-0.066000223,-16.511642456
1748264180.991071,44.651000000,0.000000000,0.000000000,0.000000000,0.000000000,-1.770793438,-74.281455994,0.000000000,-0.066000223,-16.511642456
1748264180.993532,44.653000000,0.000000000,0.000000000,0.000000000,0.000000000,-1.770793438,-74.281455994,0.000000000,-0.066000223,-16.511642456
1748264180.996010,44.656000000,0.000000000,0.000000000,0.000000000,0.000000000,-1.770793438,-74.281455994,0.000000000,-0.066000223,-16.511642456
1748264180.998423,44.658000000,0.000000000,0.000000000,0.000000000,0.000000000,-1.770793438,-74.281455994,0.000000000,-0.066000223,-16.511642456
1748264181.000843,44.661000000,0.000000000,0.000000000,0.000000000,0.000000000,-1.770793438,-74.281455994,0.000000000,-0.066000223,-16.511642456
1748264181.003210,44.663000000,0.000000000,0.000000000,0.000000000,0.000000000,-1.770793438,-74.281455994,0.000000000,-0.066000223,-16.511642456
1748264181.005586,44.665000000,0.000000000,0.000000000,0.000000000,0.000000000,-1.770793438,-74.281455994,0.000000000,-0.066000223,-16.511642456
1748264181.007975,44.668000000,0.000000000,0.000000000,0.000000000,0.000000000,-1.770793438,-74.281455994,0.000000000,-0.066000223,-16.511642456
1748264181.010407,44.670000000,0.000000000,0.000000000,0.000000000,0.000000000,-1.770793438,-74.281455994,0.000000000,-0.066000223,-16.511642456
1748264181.012813,44.673000000,0.000000000,0.000000000,0.000000000,0.000000000,-1.770793438,-74.281455994,0.000000000,-0.066000223,-16.511642456
1748264181.015197,44.675000000,0.000000000,0.000000000,0.000000000,0.000000000,-1.770793438,-74.281455994,0.000000000,-0.066000223,-16.511642456
1748264181.017580,44.677000000,0.000000000,0.000000000,0.000000000,0.000000000,-1.770793438,-74.281455994,0.000000000,-0.066000223,-16.511642456
1748264181.019968,44.680000000,0.000000000,0.000000000,0.000000000,0.000000000,-1.770793438,-74.281455994,0.000000000,-0.066000223,-16.511642456
1748264181.022353,44.682000000,0.000000000,0.000000000,0.000000000,0.000000000,-1.770793438,-74.281455994,0.000000000,-0.066000223,-16.511642456
1748264181.024765,44.685000000,0.000000000,0.000000000,0.000000000,0.000000000,-1.770793438,-74.281455994,0.000000000,-0.066000223,-16.511642456
1748264181.027630,44.687000000,0.000000000,0.000000000,0.000000000,0.000000000,-1.770793438,-74.281455994,0.000000000,-0.066000223,-16.511642456
1748264181.030132,44.690000000,0.000000000,0.000000000,0.000000000,0.000000000,-1.770793438,-74.281455994,0.000000000,-0.066000223,-16.511642456
1748264181.032601,44.692000000,0.000000000,0.000000000,0.000000000,0.000000000,-1.770793438,-74.281455994,0.000000000,-0.066000223,-16.511642456
1748264181.035038,44.695000000,0.000000000,0.000000000,0.000000000,0.000000000,-1.770793438,-74.281455994,0.000000000,-0.066000223,-16.511642456
1748264181.037504,44.697000000,0.000000000,0.000000000,0.000000000,0.000000000,-1.770793438,-74.281455994,0.000000000,-0.066000223,-16.511642456
1748264181.039979,44.700000000,0.000000000,0.000000000,0.000000000,0.000000000,-1.770793438,-74.281455994,0.000000000,-0.066000223,-16.511642456
1748264181.042480,44.702000000,0.000000000,0.000000000,0.000000000,0.000000000,-1.770793438,-74.281455994,0.000000000,-0.066000223,-16.511642456
1748264181.044907,44.705000000,0.000000000,0.000000000,0.000000000,0.000000000,-1.770793438,-74.281455994,0.000000000,-0.066000223,-16.511642456
1748264181.047274,44.707000000,0.000000000,0.000000000,0.000000000,0.000000000,-1.770793438,-74.281455994,0.000000000,-0.066000223,-16.511642456
1748264181.049644,44.710000000,0.000000000,0.000000000,0.000000000,0.000000000,-1.770793438,-74.281455994,0.000000000,-0.066000223,-16.511642456
1748264181.052076,44.712000000,0.000000000,0.000000000,0.000000000,0.000000000,-1.770793438,-74.281455994,0.000000000,-0.066000223,-16.511642456
1748264181.054435,44.714000000,0.000000000,0.000000000,0.000000000,0.000000000,-1.770793438,-74.281455994,0.000000000,-0.066000223,-16.511642456
1748264181.056818,44.717000000,0.000000000,0.000000000,0.000000000,0.000000000,-1.770793438,-74.281455994,0.000000000,-0.066000223,-16.511642456
1748264181.059180,44.719000000,0.000000000,0.000000000,0.000000000,0.000000000,-1.770793438,-74.281455994,0.000000000,-0.066000223,-16.511642456
1748264181.061552,44.721000000,0.000000000,0.000000000,0.000000000,0.000000000,-1.770793438,-74.281455994,0.000000000,-0.066000223,-16.511642456
1748264181.063949,44.724000000,0.000000000,0.000000000,0.000000000,0.000000000,-1.770793438,-74.281455994,0.000000000,-0.066000223,-16.511642456
1748264181.066495,44.726000000,0.000000000,0.000000000,0.000000000,0.000000000,-1.770793438,-74.281455994,0.000000000,-0.066000223,-16.511642456
1748264181.069025,44.729000000,0.000000000,0.000000000,0.000000000,0.000000000,-1.770793438,-74.281455994,0.000000000,-0.066000223,-16.511642456
1748264181.071515,44.731000000,0.000000000,0.000000000,0.000000000,0.000000000,-1.770793438,-74.281455994,0.000000000,-0.066000223,-16.511642456
1748264181.073960,44.734000000,0.000000000,0.000000000,0.000000000,0.000000000,-1.770793438,-74.281455994,0.000000000,-0.066000223,-16.511642456
1748264181.076403,44.736000000,0.000000000,0.000000000,0.000000000,0.000000000,-1.770793438,-74.281455994,0.000000000,-0.066000223,-16.511642456
1748264181.078857,44.739000000,0.000000000,0.000000000,0.000000000,0.000000000,-1.770793438,-74.281455994,0.000000000,-0.066000223,-16.511642456
1748264181.081310,44.741000000,0.000000000,0.000000000,0.000000000,0.000000000,-1.770793438,-74.281455994,0.000000000,-0.066000223,-16.511642456
1748264181.083705,44.744000000,0.000000000,0.000000000,0.000000000,0.000000000,-1.784295797,-71.633186340,0.000000000,-0.066000223,-16.511913300
1748264181.086073,44.746000000,0.000000000,0.000000000,0.000000000,0.000000000,-1.784295797,-74.962226868,0.000000000,-0.066000223,-16.511913300
1748264181.088442,44.748000000,0.000000000,0.000000000,0.000000000,0.000000000,-1.784295797,-74.962226868,0.000000000,-0.066000223,-16.511913300
1748264181.090826,44.751000000,0.000000000,0.000000000,0.000000000,0.000000000,-1.784295797,-74.962226868,0.000000000,-0.066000223,-16.511913300
1748264181.093207,44.753000000,0.000000000,0.000000000,0.000000000,0.000000000,-1.784295797,-74.962226868,0.000000000,-0.066000223,-16.511913300
1748264181.095600,44.755000000,0.000000000,0.000000000,0.000000000,0.000000000,-1.784295797,-74.962226868,0.000000000,-0.066000223,-16.511913300
1748264181.097992,44.758000000,0.000000000,0.000000000,0.000000000,0.000000000,-1.784295797,-74.962226868,0.000000000,-0.066000223,-16.511913300
1748264181.100370,44.760000000,0.000000000,0.000000000,0.000000000,0.000000000,-1.784295797,-74.962226868,0.000000000,-0.066000223,-16.511913300
1748264181.102754,44.763000000,0.000000000,0.000000000,0.000000000,0.000000000,-1.784295797,-74.962226868,0.000000000,-0.066000223,-16.511913300
1748264181.105196,44.765000000,0.000000000,0.000000000,0.000000000,0.000000000,-1.784295797,-74.962226868,0.000000000,-0.066000223,-16.511913300
1748264181.107564,44.767000000,0.000000000,0.000000000,0.000000000,0.000000000,-1.784295797,-74.962226868,0.000000000,-0.066000223,-16.511913300
1748264181.109947,44.770000000,0.000000000,0.000000000,0.000000000,0.000000000,-1.784295797,-74.962226868,0.000000000,-0.066000223,-16.511913300
1748264181.112380,44.772000000,0.000000000,0.000000000,0.000000000,0.000000000,-1.784295797,-74.962226868,0.000000000,-0.066000223,-16.511913300
