__time,/psm_joint_telemetry/header/stamp,/psm_joint_telemetry/insertion/effort,/psm_joint_telemetry/insertion/position,/psm_joint_telemetry/insertion/velocity,/psm_joint_telemetry/pitch/effort,/psm_joint_telemetry/pitch/position,/psm_joint_telemetry/pitch/velocity,/psm_joint_telemetry/roll/effort,/psm_joint_telemetry/roll/position,/psm_joint_telemetry/roll/velocity
1748263748.010428,30.500000000,0.000000000,-333.357879639,0.000000000,0.000000000,-16.904672623,-84.375373840,0.000000000,-0.074999034,-19.114686966
1748263748.012809,30.502000000,0.000000000,-333.357879639,0.000000000,0.000000000,-16.904672623,-81.031494141,0.000000000,-0.074999034,-19.114122391
1748263748.015207,30.505000000,0.000000000,-333.357879639,0.000000000,0.000000000,-16.918172836,-78.366882324,0.000000000,-0.074999034,-19.113924026
1748263748.017581,30.507000000,0.000000000,-333.357879639,0.000000000,0.000000000,-16.918172836,-81.712165833,0.000000000,-0.074999034,-19.113466263
1748263748.019961,30.510000000,0.000000000,-333.357879639,0.000000000,0.000000000,-16.918172836,-81.712165833,0.000000000,-0.074999034,-19.113054276
1748263748.022371,30.512000000,0.000000000,-333.357879639,0.000000000,0.000000000,-16.918172836,-81.712165833,0.000000000,-0.074999034,-19.112684250
1748263748.024757,30.514000000,0.000000000,-333.357879639,0.000000000,0.000000000,-16.918172836,-81.712165833,0.000000000,-0.074999034,-19.112350464
1748263748.027144,30.517000000,0.000000000,-333.357879639,0.000000000,0.000000000,-16.918172836,-81.712165833,0.000000000,-0.074999034,-19.112051010
1748263748.029632,30.519000000,0.000000000,-333.357879639,0.000000000,0.000000000,-16.918172836,-81.712165833,0.000000000,-0.074999034,-19.111780167
1748263748.032115,30.522000000,0.000000000,-333.357879639,0.000000000,0.000000000,-16.918172836,-81.712165833,0.000000000,-0.074999034,-19.111536026
1748263748.034515,30.524000000,0.000000000,-333.357879639,0.000000000,0.000000000,-16.918172836,-81.712165833,0.000000000,-0.074999034,-19.111318588
1748263748.036912,30.527000000,0.000000000,-333.357879639,0.000000000,0.000000000,-16.918172836,-81.712165833,0.000000000,-0.074999034,-19.111120224
1748263748.039316,30.529000000,0.000000000,-333.357879639,0.000000000,0.000000000,-16.918172836,-81.712165833,0.000000000,-0.074999034,-19.110944748
1748263748.041683,30.531000000,0.000000000,-333.357879639,0.000000000,0.000000000,-16.918172836,-81.712165833,0.000000000,-0.074999034,-19.110784531
1748263748.044070,30.534000000,0.000000000,-333.357879639,0.000000000,0.000000000,-16.918172836,-81.712165833,0.000000000,-0.074999034,-19.110641479
1748263748.046519,30.536000000,0.000000000,-333.357879639,0.000000000,0.000000000,-16.918172836,-81.712165833,0.000000000,-0.074999034,-19.110511780
1748263748.049005,30.539000000,0.000000000,-333.357879639,0.000000000,0.000000000,-16.918172836,-81.712165833,0.000000000,-0.074999034,-19.110395432
1748263748.051540,30.541000000,0.000000000,-333.357879639,0.000000000,0.000000000,-16.918172836,-81.712165833,0.000000000,-0.074999034,-19.110290527
1748263748.054005,30.544000000,0.000000000,-333.357879639,0.000000000,0.000000000,-16.918172836,-81.712165833,0.000000000,-0.074999034,-19.110197067
1748263748.056535,30.546000000,0.000000000,-333.357879639,0.000000000,0.000000000,-16.918172836,-81.712165833,0.000000000,-0.074999034,-19.110111237
1748263748.059034,30.549000000,0.000000000,-333.357879639,0.000000000,0.000000000,-16.918172836,-81.712165833,0.000000000,-0.074999034,-19.110034943
1748263748.061414,30.551000000,0.000000000,-333.357879639,0.000000000,0.000000000,-16.918172836,-81.712165833,0.000000000,-0.074999034,-19.109966278
1748263748.063817,30.553000000,0.000000000,-333.357879639,0.000000000,0.000000000,-16.918172836,-81.712165833,0.000000000,-0.074999034,-19.109905243
1748263748.066217,30.556000000,0.000000000,-333.357879639,0.000000000,0.000000000,-16.918172836,-81.712165833,0.000000000,-0.074999034,-19.109849930
1748263748.068609,30.558000000,0.000000000,-333.357879639,0.000000000,0.000000000,-16.918172836,-81.712165833,0.000000000,-0.074999034,-19.109798431
1748263748.071007,30.561000000,0.000000000,-333.357879639,0.000000000,0.000000000,-16.918172836,-81.712165833,0.000000000,-0.074999034,-19.109754562
1748263748.073413,30.563000000,0.000000000,-333.357879639,0.000000000,0.000000000,-16.918172836,-81.712165833,0.000000000,-0.074999034,-19.109712601
1748263748.075733,30.565000000,0.000000000,-333.357879639,0.000000000,0.000000000,-16.918172836,-81.712165833,0.000000000,-0.074999034,-19.109676361
1748263748.078120,30.568000000,0.000000000,-333.357879639,0.000000000,0.000000000,-16.918172836,-81.712165833,0.000000000,-0.074999034,-19.109643936
1748263748.080459,30.570000000,0.000000000,-333.357879639,0.000000000,0.000000000,-16.918172836,-81.712165833,0.000000000,-0.074999034,-19.109615326
1748263748.082883,30.572000000,0.000000000,-333.357879639,0.000000000,0.000000000,-16.918172836,-81.712165833,0.000000000,-0.074999034,-19.109588623
1748263748.085200,30.575000000,0.000000000,-333.357879639,0.000000000,0.000000000,-16.918172836,-81.712165833,0.000000000,-0.074999034,-19.109563828
1748263748.087620,30.577000000,0.000000000,-333.357879639,0.000000000,0.000000000,-16.918172836,-81.712165833,0.000000000,-0.074999034,-19.109542847
1748263748.090006,30.580000000,0.000000000,-333.357879639,0.000000000,0.000000000,-16.918172836,-81.712165833,0.000000000,-0.074999034,-19.109523773
1748263748.092390,30.582000000,0.000000000,-333.357879639,0.000000000,0.000000000,-16.918172836,-81.712165833,0.000000000,-0.074999034,-19.109504700
1748263748.094764,30.584000000,0.000000000,-333.357879639,0.000000000,0.000000000,-16.918172836,-81.712165833,0.000000000,-0.074999034,-19.109489441
1748263748.097182,30.587000000,0.000000000,-333.357879639,0.000000000,0.000000000,-16.918172836,-81.712165833,0.000000000,-0.074999034,-19.109476089
1748263748.099589,30.589000000,0.000000000,-333.357879639,0.000000000,0.000000000,-16.918172836,-81.712165833,0.000000000,-0.074999034,-19.109462738
1748263748.102044,30.592000000,0.000000000,-333.357879639,0.000000000,0.000000000,-16.918172836,-81.712165833,0.000000000,-0.074999034,-19.109451294
1748263748.104459,30.594000000,0.000000000,-333.357879639,0.000000000,0.000000000,-16.918172836,-81.712165833,0.000000000,-0.074999034,-19.109441757
1748263748.106856,30.596000000,0.000000000,-333.357879639,0.000000000,0.000000000,-16.918172836,-81.712165833,0.000000000,-0.074999034,-19.109432220
1748263748.109296,30.599000000,0.000000000,-333.357879639,0.000000000,0.000000000,-16.918172836,-81.712165833,0.000000000,-0.074999034,-19.109422684
1748263748.111737,30.601000000,0.000000000,-333.357879639,0.000000000,0.000000000,-16.918172836,-81.712165833,0.000000000,-0.074999034,-19.109415054
1748263748.114092,30.604000000,0.000000000,-333.357879639,0.000000000,0.000000000,-16.918172836,-81.712165833,0.000000000,-0.074999034,-19.109409332
1748263748.116519,30.606000000,0.000000000,-333.357879639,0.000000000,0.000000000,-16.918172836,-81.712165833,0.000000000,-0.074999034,-19.109403610
1748263748.118927,30.609000000,0.000000000,-333.357879639,0.000000000,0.000000000,-16.918172836,-81.712165833,0.000000000,-0.074999034,-19.109397888
1748263748.121325,30.611000000,0.000000000,-333.357879639,0.000000000,0.000000000,-16.918172836,-81.712165833,0.000000000,-0.074999034,-19.109392166
1748263748.123714,30.613000000,0.000000000,-333.357879639,0.000000000,0.000000000,-16.918172836,-81.712165833,0.000000000,-0.074999034,-19.109388351
1748263748.126093,30.616000000,0.000000000,-333.357879639,0.000000000,0.000000000,-16.918172836,-81.712165833,0.000000000,-0.074999034,-19.109384537
1748263748.128526,30.618000000,0.000000000,-333.357879639,0.000000000,0.000000000,-16.918172836,-81.712165833,0.000000000,-0.074999034,-19.109380722
1748263748.130944,30.621000000,0.000000000,-333.357879639,0.000000000,0.000000000,-16.918172836,-81.712165833,0.000000000,-0.074999034,-19.109376907
1748263748.133318,30.623000000,0.000000000,-333.357879639,0.000000000,0.000000000,-16.918172836,-81.712165833,0.000000000,-0.074999034,-19.109375000
1748263748.135716,30.625000000,0.000000000,-333.357879639,0.000000000,0.000000000,-16.918172836,-81.712165833,0.000000000,-0.074999034,-19.109371185
1748263748.138103,30.628000000,0.000000000,-333.357879639,0.000000000,0.000000000,-16.918172836,-81.712165833,0.000000000,-0.074999034,-19.109369278
1748263748.140517,30.630000000,0.000000000,-333.357879639,0.000000000,0.000000000,-16.918172836,-81.712165833,0.000000000,-0.074999034,-19.109367371
1748263748.142896,30.633000000,0.000000000,-333.357879639,0.000000000,0.000000000,-16.918172836,-81.712165833,0.000000000,-0.074999034,-19.109365463
1748263748.145293,30.635000000,0.000000000,-333.357879639,0.000000000,0.000000000,-16.918172836,-81.712165833,0.000000000,-0.074999034,-19.109363556
1748263748.147681,30.637000000,0.000000000,-333.357879639,0.000000000,0.000000000,-16.918172836,-81.712165833,0.000000000,-0.074999034,-19.109361649
1748263748.150114,30.640000000,0.000000000,-333.357879639,0.000000000,0.000000000,-16.918172836,-81.712165833,0.000000000,-0.074999034,-19.109361649
1748263748.152502,30.642000000,0.000000000,-333.357879639,0.000000000,0.000000000,-16.918172836,-81.712165833,0.000000000,-0.074999034,-19.109359741
1748263748.154882,30.645000000,0.000000000,-333.357879639,0.000000000,0.000000000,-16.918172836,-81.712165833,0.000000000,-0.074999034,-19.109357834
1748263748.157253,30.647000000,0.000000000,-333.357879639,0.000000000,0.000000000,-16.918172836,-81.712165833,0.000000000,-0.074999034,-19.109357834
1748263748.159623,30.649000000,0.000000000,-333.357879639,0.000000000,0.000000000,-16.918172836,-81.712165833,0.000000000,-0.074999034,-19.109355927
1748263748.162017,30.652000000,0.000000000,-333.357879639,0.000000000,0.000000000,-16.918172836,-81.712165833,0.000000000,-0.074999034,-19.109355927
1748263748.164421,30.654000000,0.000000000,-333.357879639,0.000000000,0.000000000,-16.918172836,-81.712165833,0.000000000,-0.074999034,-19.109354019
1748263748.166808,30.656000000,0.000000000,-333.357879639,0.000000000,0.000000000,-16.918172836,-81.712165833,0.000000000,-0.074999034,-19.109354019
1748263748.169191,30.659000000,0.000000000,-333.357879639,0.000000000,0.000000000,-16.918172836,-81.712165833,0.000000000,-0.074999034,-19.109354019
1748263748.171643,30.661000000,0.000000000,-333.357879639,0.000000000,0.000000000,-16.918172836,-81.712165833,0.000000000,-0.074999034,-19.109354019
1748263748.173966,30.664000000,0.000000000,-333.357879639,0.000000000,0.000000000,-16.918172836,-81.712165833,0.000000000,-0.074999034,-19.109352112
1748263748.176359,30.666000000,0.000000000,-333.357879639,0.000000000,0.000000000,-16.918172836,-81.712165833,0.000000000,-0.074999034,-19.109352112
1748263748.178725,30.668000000,0.000000000,-333.357879639,0.000000000,0.000000000,-16.918172836,-81.712165833,0.000000000,-0.074999034,-19.109352112
1748263748.181124,30.671000000,0.000000000,-333.357879639,0.000000000,0.000000000,-16.918172836,-81.712165833,0.000000000,-0.074999034,-19.109352112
1748263748.183489,30.673000000,0.000000000,-333.357879639,0.000000000,0.000000000,-16.918172836,-81.712165833,0.000000000,-0.074999034,-19.109352112
1748263748.185883,30.676000000,0.000000000,-333.357879639,0.000000000,0.000000000,-16.918172836,-81.712165833,0.000000000,-0.074999034,-19.109350204
1748263748.188260,30.678000000,0.000000000,-333.357879639,0.000000000,0.000000000,-16.918172836,-81.712165833,0.000000000,-0.074999034,-19.109350204
1748263748.190620,30.680000000,0.000000000,-333.357879639,0.000000000,0.000000000,-16.918172836,-81.712165833,0.000000000,-0.074999034,-19.109350204
1748263748.192999,30.683000000,0.000000000,-333.357879639,0.000000000,0.000000000,-16.918172836,-81.712165833,0.000000000,-0.074999034,-19.109350204
1748263748.195363,30.685000000,0.000000000,-333.357879639,0.000000000,0.000000000,-16.918172836,-81.712165833,0.000000000,-0.074999034,-19.109350204
1748263748.197749,30.687000000,0.000000000,-333.357879639,0.000000000,0.000000000,-16.918172836,-81.712165833,0.000000000,-0.074999034,-19.109350204
1748263748.200129,30.690000000,0.000000000,-333.357879639,0.000000000,0.000000000,-16.918172836,-81.712165833,0.000000000,-0.074999034,-19.109350204
1748263748.202501,30.692000000,0.000000000,-333.357879639,0.000000000,0.000000000,-16.918172836,-81.712165833,0.000000000,-0.074999034,-19.109350204
1748263748.204891,30.695000000,0.000000000,-333.357879639,0.000000000,0.000000000,-16.918172836,-81.712165833,0.000000000,-0.074999034,-19.109350204
1748263748.207298,30.697000000,0.000000000,-333.357879639,0.000000000,0.000000000,-16.918172836,-81.712165833,0.000000000,-0.074999034,-19.109350204
1748263748.209671,30.699000000,0.000000000,-333.357879639,0.000000000,0.000000000,-16.918172836,-81.712165833,0.000000000,-0.074999034,-19.109348297
1748263748.212065,30.702000000,0.000000000,-333.357879639,0.000000000,0.000000000,-16.918172836,-81.712165833,0.000000000,-0.074999034,-19.109348297
1748263748.214435,30.704000000,0.000000000,-333.357879639,0.000000000,0.000000000,-16.918172836,-81.712165833,0.000000000,-0.074999034,-19.109348297
1748263748.216847,30.706000000,0.000000000,-333.357879639,0.000000000,0.000000000,-16.918172836,-81.712165833,0.000000000,-0.074999034,-19.109348297
1748263748.219247,30.709000000,0.000000000,-333.357879639,0.000000000,0.000000000,-16.931673050,-79.091911316,0.000000000,-0.074999034,-19.109657288
1748263748.221650,30.711000000,0.000000000,-333.357879639,0.000000000,0.000000000,-16.931673050,-82.392829895,0.000000000,-0.074999034,-19.109657288
1748263748.224084,30.714000000,0.000000000,-333.357879639,0.000000000,0.000000000,-16.931673050,-82.392829895,0.000000000,-0.074999034,-19.109657288
1748263748.226648,30.716000000,0.000000000,-333.357879639,0.000000000,0.000000000,-16.931673050,-82.392829895,0.000000000,-0.074999034,-19.109657288
1748263748.229115,30.719000000,0.000000000,-333.357879639,0.000000000,0.000000000,-16.931673050,-82.392829895,0.000000000,-0.074999034,-19.109657288
1748263748.231428,30.721000000,0.000000000,-333.357879639,0.000000000,0.000000000,-16.931673050,-82.392829895,0.000000000,-0.074999034,-19.109657288
1748263748.233764,30.723000000,0.000000000,-333.357879639,0.000000000,0.000000000,-16.931673050,-82.392829895,0.000000000,-0.074999034,-19.109657288
1748263748.236180,30.726000000,0.000000000,-333.357879639,0.000000000,0.000000000,-16.931673050,-82.392829895,0.000000000,-0.074999034,-19.109657288
1748263748.238520,30.728000000,0.000000000,-333.357879639,0.000000000,0.000000000,-16.931673050,-82.392829895,0.000000000,-0.074999034,-19.109657288
1748263748.240921,30.731000000,0.000000000,-333.357879639,0.000000000,0.000000000,-16.931673050,-82.392829895,0.000000000,-0.074999034,-19.109657288
1748263748.243274,30.733000000,0.000000000,-333.357879639,0.000000000,0.000000000,-16.931673050,-82.392829895,0.000000000,-0.074999034,-19.109657288
1748263748.245652,30.735000000,0.000000000,-333.357879639,0.000000000,0.000000000,-16.931673050,-82.392829895,0.000000000,-0.074999034,-19.109657288
1748263748.248040,30.738000000,0.000000000,-333.357879639,0.000000000,0.000000000,-16.931673050,-82.392829895,0.000000000,-0.074999034,-19.109657288
1748263748.250419,30.740000000,0.000000000,-333.357879639,0.000000000,0.000000000,-16.931673050,-82.392829895,0.000000000,-0.074999034,-19.109657288
1748263748.252812,30.742000000,0.000000000,-333.357879639,0.000000000,0.000000000,-16.931673050,-82.392829895,0.000000000,-0.074999034,-19.109657288
1748263748.255183,30.745000000,0.000000000,-333.357879639,0.000000000,0.000000000,-16.931673050,-82.392829895,0.000000000,-0.074999034,-19.109657288
1748263748.257561,30.747000000,0.000000000,-333.357879639,0.000000000,0.000000000,-16.931673050,-82.392829895,0.000000000,-0.074999034,-19.109657288
1748263748.260009,30.750000000,0.000000000,-333.357879639,0.000000000,0.000000000,-16.931673050,-82.392829895,0.000000000,-0.074999034,-19.109657288
1748263748.262471,30.752000000,0.000000000,-333.357879639,0.000000000,0.000000000,-16.931673050,-82.392829895,0.000000000,-0.074999034,-19.109657288
1748263748.264895,30.755000000,0.000000000,-333.357879639,0.000000000,0.000000000,-16.931673050,-82.392829895,0.000000000,-0.074999034,-19.109657288
1748263748.267322,30.757000000,0.000000000,-333.357879639,0.000000000,0.000000000,-16.931673050,-82.392829895,0.000000000,-0.074999034,-19.109657288
1748263748.269690,30.759000000,0.000000000,-333.357879639,0.000000000,0.000000000,-16.931673050,-82.392829895,0.000000000,-0.074999034,-19.109657288
1748263748.272106,30.762000000,0.000000000,-333.357879639,0.000000000,0.000000000,-16.931673050,-82.392829895,0.000000000,-0.074999034,-19.109657288
1748263748.274486,30.764000000,0.000000000,-333.357879639,0.000000000,0.000000000,-16.931673050,-82.392829895,0.000000000,-0.074999034,-19.109657288
1748263748.276932,30.767000000,0.000000000,-333.357879639,0.000000000,0.000000000,-16.931673050,-82.392829895,0.000000000,-0.074999034,-19.109657288
1748263748.279416,30.769000000,0.000000000,-333.357879639,0.000000000,0.000000000,-16.931673050,-82.392829895,0.000000000,-0.074999034,-19.109657288
1748263748.281947,30.772000000,0.000000000,-333.357879639,0.000000000,0.000000000,-16.931673050,-82.392829895,0.000000000,-0.074999034,-19.109657288
1748263748.284338,30.774000000,0.000000000,-333.357879639,0.000000000,0.000000000,-16.931673050,-82.392829895,0.000000000,-0.074999034,-19.109657288
1748263748.286774,30.776000000,0.000000000,-333.357879639,0.000000000,0.000000000,-16.931673050,-82.392829895,0.000000000,-0.074999034,-19.109657288
1748263748.289214,30.779000000,0.000000000,-333.357879639,0.000000000,0.000000000,-16.931673050,-82.392829895,0.000000000,-0.074999034,-19.109657288
1748263748.291660,30.781000000,0.000000000,-333.357879639,0.000000000,0.000000000,-16.931673050,-82.392829895,0.000000000,-0.074999034,-19.109657288
1748263748.294100,30.784000000,0.000000000,-333.357879639,0.000000000,0.000000000,-16.931673050,-82.392829895,0.000000000,-0.074999034,-19.109657288
1748263748.296569,30.786000000,0.000000000,-333.357879639,0.000000000,0.000000000,-16.931673050,-82.392829895,0.000000000,-0.074999034,-19.109657288
1748263748.298980,30.789000000,0.000000000,-333.357879639,0.000000000,0.000000000,-16.931673050,-82.392829895,0.000000000,-0.074999034,-19.109657288
1748263748.301369,30.791000000,0.000000000,-333.357879639,0.000000000,0.000000000,-16.931673050,-82.392829895,0.000000000,-0.074999034,-19.109657288
1748263748.303755,30.793000000,0.000000000,-333.357879639,0.000000000,0.000000000,-16.931673050,-82.392829895,0.000000000,-0.074999034,-19.109657288
1748263748.306130,30.796000000,0.000000000,-333.357879639,0.000000000,0.000000000,-16.931673050,-82.392829895,0.000000000,-0.074999034,-19.109657288
1748263748.308606,30.798000000,0.000000000,-333.357879639,0.000000000,0.000000000,-16.931673050,-82.392829895,0.000000000,-0.074999034,-19.109657288
1748263748.311091,30.801000000,0.000000000,-333.357879639,0.000000000,0.000000000,-16.931673050,-82.392829895,0.000000000,-0.074999034,-19.109657288
1748263748.313569,30.803000000,0.000000000,-333.357879639,0.000000000,0.000000000,-16.931673050,-82.392829895,0.000000000,-0.074999034,-19.109657288
1748263748.315981,30.806000000,0.000000000,-333.357879639,0.000000000,0.000000000,-16.931673050,-82.392829895,0.000000000,-0.074999034,-19.109657288
1748263748.318376,30.808000000,0.000000000,-333.357879639,0.000000000,0.000000000,-16.931673050,-82.392829895,0.000000000,-0.074999034,-19.109657288
1748263748.320813,30.810000000,0.000000000,-333.357879639,0.000000000,0.000000000,-16.931673050,-82.392829895,0.000000000,-0.074999034,-19.109657288
1748263748.323267,30.813000000,0.000000000,-333.357879639,0.000000000,0.000000000,-16.931673050,-82.392829895,0.000000000,-0.074999034,-19.109657288
